# d=[324.68679633 417.69669401 355.18112578 481.95459645 296.96073482
 346.51138985 270.90154666 283.13891091]
# TotalMass=9.267629258456427T, max_u17=43.7912589005378mm
Time (s), Displacement (mm)
0.000000000000000000e+00,-5.910709336216372526e-05
2.000000000000000042e-03,-2.928766601919190562e-04
4.000000000000000083e-03,-7.524289462504683617e-04
6.000000000000000125e-03,-1.427065828214539416e-03
8.000000000000000167e-03,-2.305968041357193965e-03
1.000000000000000021e-02,-3.378139557221524619e-03
1.200000000000000025e-02,-4.632402323439989943e-03
1.400000000000000029e-02,-6.057462030576105452e-03
1.600000000000000033e-02,-7.642051433174558255e-03
1.800000000000000211e-02,-9.375141218583734476e-03
2.000000000000000042e-02,-1.124620246642436469e-02
2.199999999999999872e-02,-1.324547315589859504e-02
2.400000000000000050e-02,-1.536416540377099488e-02
2.600000000000000228e-02,-1.759459050941920844e-02
2.800000000000000058e-02,-1.993017740286259776e-02
2.999999999999999889e-02,-2.236535470068115247e-02
3.200000000000000067e-02,-2.489529421631945724e-02
3.400000000000000244e-02,-2.751553242672152844e-02
3.600000000000000422e-02,-3.022150298821668288e-02
3.799999999999999906e-02,-3.300802543161002883e-02
4.000000000000000083e-02,-3.587461956870909713e-02
4.200000000000000261e-02,-3.883087147453655186e-02
4.399999999999999745e-02,-4.189025454983248686e-02
4.599999999999999922e-02,-4.506407917697623222e-02
4.800000000000000100e-02,-4.836140032990670495e-02
5.000000000000000278e-02,-5.178905736256977227e-02
5.200000000000000455e-02,-5.535183292544711836e-02
5.399999999999999939e-02,-5.905270930612001312e-02
5.600000000000000117e-02,-6.289319549561428468e-02
5.800000000000000294e-02,-6.687369700137699158e-02
5.999999999999999778e-02,-7.099391215091017948e-02
6.199999999999999956e-02,-7.525322324427852205e-02
6.400000000000000133e-02,-7.965104648612489346e-02
6.600000000000000311e-02,-8.418714919781777883e-02
6.800000000000000488e-02,-8.886193745655361631e-02
7.000000000000000666e-02,-9.367670068518563209e-02
7.200000000000000844e-02,-9.863381086126382646e-02
7.399999999999999634e-02,-1.037368739752065061e-01
7.599999999999999811e-02,-1.089908305279024409e-01
7.799999999999999989e-02,-1.144020009656378373e-01
8.000000000000000167e-02,-1.199780619552812677e-01
8.200000000000000344e-02,-1.257279600741761649e-01
8.400000000000000522e-02,-1.316617819020478308e-01
8.600000000000000699e-02,-1.377905644015944286e-01
8.799999999999999489e-02,-1.441260444168788457e-01
8.999999999999999667e-02,-1.506803711559042691e-01
9.199999999999999845e-02,-1.574658005926676263e-01
9.400000000000000022e-02,-1.644943941599881498e-01
9.600000000000000200e-02,-1.717777453881588479e-01
9.800000000000000377e-02,-1.793267568529823552e-01
1.000000000000000056e-01,-1.871442958550313673e-01
1.020000000000000073e-01,-1.952179375633490144e-01
1.040000000000000091e-01,-2.035271816628714259e-01
1.059999999999999970e-01,-2.120507496795390745e-01
1.079999999999999988e-01,-2.207667639949565663e-01
1.100000000000000006e-01,-2.296529845967661687e-01
1.120000000000000023e-01,-2.386870741282582642e-01
1.140000000000000041e-01,-2.478468569716487657e-01
1.160000000000000059e-01,-2.571105376178000612e-01
1.180000000000000077e-01,-2.664568475823725358e-01
1.199999999999999956e-01,-2.758650980893933014e-01
1.219999999999999973e-01,-2.853151265492764321e-01
1.239999999999999991e-01,-2.947871370188761553e-01
1.260000000000000009e-01,-3.042614467128281763e-01
1.280000000000000027e-01,-3.137181607121116711e-01
1.300000000000000044e-01,-3.231368040923204288e-01
1.320000000000000062e-01,-3.324959440673645461e-01
1.340000000000000080e-01,-3.417728342759742688e-01
1.360000000000000098e-01,-3.509431094339270363e-01
1.380000000000000115e-01,-3.599805520791714564e-01
1.400000000000000133e-01,-3.688569451688568646e-01
1.420000000000000151e-01,-3.775420160434412864e-01
1.440000000000000169e-01,-3.860034698352060034e-01
1.459999999999999909e-01,-3.942071045757069014e-01
1.479999999999999927e-01,-4.021169964872348679e-01
1.499999999999999944e-01,-4.096957422676780758e-01
1.519999999999999962e-01,-4.169047452820242028e-01
1.539999999999999980e-01,-4.237045338890455537e-01
1.559999999999999998e-01,-4.300551019734808467e-01
1.580000000000000016e-01,-4.359162634663582558e-01
1.600000000000000033e-01,-4.412568396221958622e-01
1.620000000000000051e-01,-4.460638382844578365e-01
1.640000000000000069e-01,-4.503339638502809050e-01
1.660000000000000087e-01,-4.540651116643805718e-01
1.680000000000000104e-01,-4.572566587022318663e-01
1.700000000000000122e-01,-4.599097075604369755e-01
1.720000000000000140e-01,-4.620272800264396684e-01
1.740000000000000158e-01,-4.636144613355370758e-01
1.759999999999999898e-01,-4.646785005435566385e-01
1.779999999999999916e-01,-4.652288756563394689e-01
1.799999999999999933e-01,-4.652773338678671822e-01
1.819999999999999951e-01,-4.648379173197239589e-01
1.839999999999999969e-01,-4.639269833102733775e-01
1.859999999999999987e-01,-4.625632251816964025e-01
1.880000000000000004e-01,-4.607676966894245218e-01
1.900000000000000022e-01,-4.585638390799628983e-01
1.920000000000000040e-01,-4.559775069183077401e-01
1.940000000000000058e-01,-4.530369863592589308e-01
1.960000000000000075e-01,-4.497729983265180143e-01
1.980000000000000093e-01,-4.462186790317177465e-01
2.000000000000000111e-01,-4.424095313206168889e-01
2.020000000000000129e-01,-4.383833422043024730e-01
2.040000000000000147e-01,-4.341800642477158245e-01
2.060000000000000164e-01,-4.298416608455786214e-01
2.080000000000000182e-01,-4.254119174579259477e-01
2.099999999999999922e-01,-4.209362223448914198e-01
2.119999999999999940e-01,-4.164613211105595569e-01
2.139999999999999958e-01,-4.120350494623560289e-01
2.159999999999999976e-01,-4.077060481683222881e-01
2.179999999999999993e-01,-4.035234634916597951e-01
2.200000000000000011e-01,-3.995255763621477496e-01
2.220000000000000029e-01,-3.957284316698109761e-01
2.240000000000000047e-01,-3.921365908099502251e-01
2.260000000000000064e-01,-3.887538780200843758e-01
2.280000000000000082e-01,-3.855830696915852340e-01
2.300000000000000100e-01,-3.826255984735011384e-01
2.320000000000000118e-01,-3.798812694137623791e-01
2.340000000000000135e-01,-3.773479822480104717e-01
2.360000000000000153e-01,-3.750214528017981053e-01
2.380000000000000171e-01,-3.728949276779619515e-01
2.399999999999999911e-01,-3.709588898457505945e-01
2.419999999999999929e-01,-3.692007578806493773e-01
2.439999999999999947e-01,-3.676045875443111344e-01
2.459999999999999964e-01,-3.661507900916680103e-01
2.479999999999999982e-01,-3.648158861064977332e-01
2.500000000000000000e-01,-3.635723159470302668e-01
2.520000000000000018e-01,-3.623883275143604532e-01
2.540000000000000036e-01,-3.612279589410206659e-01
2.560000000000000053e-01,-3.600511282646268185e-01
2.580000000000000071e-01,-3.588138348984673542e-01
2.600000000000000089e-01,-3.574778637345183974e-01
2.620000000000000107e-01,-3.560205784057538514e-01
2.640000000000000124e-01,-3.544259960876389726e-01
2.660000000000000142e-01,-3.526759213519848890e-01
2.680000000000000160e-01,-3.507505048698255634e-01
2.700000000000000178e-01,-3.486288027878224338e-01
2.720000000000000195e-01,-3.462893234364984862e-01
2.740000000000000213e-01,-3.437105559996418425e-01
2.760000000000000231e-01,-3.408714825630159706e-01
2.780000000000000249e-01,-3.377520792876391176e-01
2.800000000000000266e-01,-3.343286708741421420e-01
2.820000000000000284e-01,-3.305692904824036327e-01
2.840000000000000302e-01,-3.264393317407872641e-01
2.860000000000000320e-01,-3.219071948772468383e-01
2.880000000000000338e-01,-3.169447737208166416e-01
2.899999999999999800e-01,-3.115279116666923032e-01
2.919999999999999818e-01,-3.056368012012459778e-01
2.939999999999999836e-01,-2.992562996144732534e-01
2.959999999999999853e-01,-2.923761359507384694e-01
2.979999999999999871e-01,-2.849909909347566050e-01
2.999999999999999889e-01,-2.771004318736587368e-01
3.019999999999999907e-01,-2.687087160877426051e-01
3.039999999999999925e-01,-2.598244982472207587e-01
3.059999999999999942e-01,-2.504604480909782827e-01
3.079999999999999960e-01,-2.406328018318661666e-01
3.099999999999999978e-01,-2.303608928793763055e-01
3.119999999999999996e-01,-2.196666958282257887e-01
3.140000000000000013e-01,-2.085744115771744345e-01
3.160000000000000031e-01,-1.971101121761716923e-01
3.180000000000000049e-01,-1.853014530177204133e-01
3.200000000000000067e-01,-1.731835516514426687e-01
3.220000000000000084e-01,-1.608049120805507270e-01
3.240000000000000102e-01,-1.482211681154584071e-01
3.260000000000000120e-01,-1.354888356892161305e-01
3.280000000000000138e-01,-1.226651516755227767e-01
3.300000000000000155e-01,-1.098078735961312558e-01
3.320000000000000173e-01,-9.697503264741709483e-02
3.340000000000000191e-01,-8.422464226417882005e-02
3.360000000000000209e-01,-7.161437288045718885e-02
3.380000000000000226e-01,-5.920120922049171980e-02
3.400000000000000244e-01,-4.704110855275267511e-02
3.420000000000000262e-01,-3.518867677824198681e-02
3.440000000000000280e-01,-2.369687459760960388e-02
3.460000000000000298e-01,-1.261675944475454565e-02
3.480000000000000315e-01,-1.997261826494632023e-03
3.500000000000000333e-01,8.115011366451638231e-03
3.519999999999999796e-01,1.767595789239197884e-02
3.539999999999999813e-01,2.664415777586363540e-02
3.559999999999999831e-01,3.498105753899793252e-02
3.579999999999999849e-01,4.265116614677892659e-02
3.599999999999999867e-01,4.962226103811012701e-02
3.619999999999999885e-01,5.586559534060227955e-02
3.639999999999999902e-01,6.135609089881944450e-02
3.659999999999999920e-01,6.607249729670768013e-02
3.679999999999999938e-01,6.999749549206488175e-02
3.699999999999999956e-01,7.311772638281603676e-02
3.719999999999999973e-01,7.542372942713292117e-02
3.739999999999999991e-01,7.690978367349431133e-02
3.760000000000000009e-01,7.757365217215732300e-02
3.780000000000000027e-01,7.741623948565914959e-02
3.800000000000000044e-01,7.644117965052892039e-02
3.820000000000000062e-01,7.465437742993112635e-02
3.840000000000000080e-01,7.206352836548733654e-02
3.860000000000000098e-01,6.867764276751306407e-02
3.880000000000000115e-01,6.450659562302819838e-02
3.900000000000000133e-01,5.956071909726912833e-02
3.920000000000000151e-01,5.385044777814693151e-02
3.940000000000000169e-01,4.738602009538478432e-02
3.960000000000000187e-01,4.017723340642060520e-02
3.980000000000000204e-01,3.223324583664274184e-02
4.000000000000000222e-01,2.358669900565861163e-02
4.020000000000000240e-01,1.431784660329653118e-02
4.040000000000000258e-01,4.530108298560286441e-03
4.060000000000000275e-01,-5.674360248465504068e-03
4.080000000000000293e-01,-1.619481110594296960e-02
4.100000000000000311e-01,-2.693206127039496356e-02
4.120000000000000329e-01,-3.778864090231685846e-02
4.140000000000000346e-01,-4.866889964881283143e-02
4.160000000000000364e-01,-5.947903427054079817e-02
4.179999999999999827e-01,-7.012700470810039055e-02
4.199999999999999845e-01,-8.052230720361056027e-02
4.219999999999999862e-01,-9.057560957121772727e-02
4.239999999999999880e-01,-1.001982832104586219e-01
4.259999999999999898e-01,-1.093018465220044338e-01
4.279999999999999916e-01,-1.177973597824073237e-01
4.299999999999999933e-01,-1.255948404129441087e-01
4.319999999999999951e-01,-1.326027591678973494e-01
4.339999999999999969e-01,-1.387276709769880711e-01
4.359999999999999987e-01,-1.438740201926438922e-01
4.380000000000000004e-01,-1.479441409053064704e-01
4.400000000000000022e-01,-1.508723936263024756e-01
4.420000000000000040e-01,-1.526594445130392552e-01
4.440000000000000058e-01,-1.533387575342823050e-01
4.460000000000000075e-01,-1.529431753875561129e-01
4.480000000000000093e-01,-1.515054623777340737e-01
4.500000000000000111e-01,-1.490587928508077531e-01
4.520000000000000129e-01,-1.456371705586892995e-01
4.540000000000000147e-01,-1.412757905084612853e-01
4.560000000000000164e-01,-1.360113754380997408e-01
4.580000000000000182e-01,-1.298825299764921060e-01
4.600000000000000200e-01,-1.229301547602600075e-01
4.620000000000000218e-01,-1.151979505875155158e-01
4.640000000000000235e-01,-1.067330215449377728e-01
4.660000000000000253e-01,-9.758656005757891660e-02
4.680000000000000271e-01,-8.781457096357195291e-02
4.700000000000000289e-01,-7.747857094972450398e-02
4.720000000000000306e-01,-6.664618801582439245e-02
4.740000000000000324e-01,-5.539158547242161584e-02
4.760000000000000342e-01,-4.379564673589509544e-02
4.780000000000000360e-01,-3.194587926276126061e-02
4.799999999999999822e-01,-1.992332985825073441e-02
4.819999999999999840e-01,-7.789237062847712348e-03
4.839999999999999858e-01,4.403137696396282330e-03
4.859999999999999876e-01,1.659683451426641199e-02
4.879999999999999893e-01,2.873227985027699063e-02
4.899999999999999911e-01,4.074834132990801799e-02
4.919999999999999929e-01,5.258328559178296335e-02
4.939999999999999947e-01,6.417559574107351006e-02
4.959999999999999964e-01,7.546463167258113391e-02
4.979999999999999982e-01,8.639114188641350278e-02
5.000000000000000000e-01,9.688773243455135742e-02
5.020000000000000018e-01,1.068692655329042118e-01
5.040000000000000036e-01,1.162430792805109608e-01
5.060000000000000053e-01,1.249192075807591396e-01
5.080000000000000071e-01,1.328107060323444055e-01
5.100000000000000089e-01,1.398340215291192790e-01
5.120000000000000107e-01,1.459093886733256740e-01
5.140000000000000124e-01,1.509612186143906853e-01
5.160000000000000142e-01,1.549184361964744405e-01
5.180000000000000160e-01,1.577147211457733678e-01
5.200000000000000178e-01,1.592886086016681024e-01
5.220000000000000195e-01,1.595834409475068438e-01
5.240000000000000213e-01,1.585471942000861445e-01
5.260000000000000231e-01,1.561321850150647894e-01
5.280000000000000249e-01,1.522946926370520038e-01
5.300000000000000266e-01,1.469945613028530162e-01
5.320000000000000284e-01,1.401948414174119251e-01
5.340000000000000302e-01,1.318615209629442897e-01
5.360000000000000320e-01,1.219633833809275203e-01
5.380000000000000338e-01,1.104720070891906797e-01
5.400000000000000355e-01,9.736190809400474544e-02
5.420000000000000373e-01,8.261078540315128227e-02
5.440000000000000391e-01,6.619980180550354143e-02
5.460000000000000409e-01,4.811386182211393331e-02
5.480000000000000426e-01,2.834183759279949172e-02
5.500000000000000444e-01,6.876681277287219167e-03
5.520000000000000462e-01,-1.628461303101066959e-02
5.540000000000000480e-01,-4.114121555908897832e-02
5.560000000000000497e-01,-6.768883201794073656e-02
5.580000000000000515e-01,-9.592021702053205034e-02
5.600000000000000533e-01,-1.258005191241900744e-01
5.620000000000000551e-01,-1.572427062582784640e-01
5.640000000000000568e-01,-1.901335737476647636e-01
5.660000000000000586e-01,-2.243597140327638073e-01
5.680000000000000604e-01,-2.598081515405520903e-01
5.700000000000000622e-01,-2.963669107112943957e-01
5.720000000000000639e-01,-3.339254877638788699e-01
5.740000000000000657e-01,-3.723751988458504081e-01
5.760000000000000675e-01,-4.116093816281003459e-01
5.779999999999999583e-01,-4.515234344644912245e-01
5.799999999999999600e-01,-4.920146966014747880e-01
5.819999999999999618e-01,-5.329821648117861743e-01
5.839999999999999636e-01,-5.743260444725559744e-01
5.859999999999999654e-01,-6.159471844413408892e-01
5.879999999999999671e-01,-6.577464457562309796e-01
5.899999999999999689e-01,-6.996240421606004789e-01
5.919999999999999707e-01,-7.414789039312345009e-01
5.939999999999999725e-01,-7.832081157041075326e-01
5.959999999999999742e-01,-8.247064737040536997e-01
5.979999999999999760e-01,-8.658661984685265267e-01
5.999999999999999778e-01,-9.065907366053900240e-01
6.019999999999999796e-01,-9.468087386806314232e-01
6.039999999999999813e-01,-9.864603853860638427e-01
6.059999999999999831e-01,-1.025483879923569486e+00
6.079999999999999849e-01,-1.063815980333989053e+00
6.099999999999999867e-01,-1.101392614287069582e+00
6.119999999999999885e-01,-1.138149545204294011e+00
6.139999999999999902e-01,-1.174023063320960958e+00
6.159999999999999920e-01,-1.208950680336088102e+00
6.179999999999999938e-01,-1.242871810294022827e+00
6.199999999999999956e-01,-1.275728411669608597e+00
6.219999999999999973e-01,-1.307465585300829902e+00
6.239999999999999991e-01,-1.338032131067014907e+00
6.260000000000000009e-01,-1.367381024811831880e+00
6.280000000000000027e-01,-1.395469785165185383e+00
6.300000000000000044e-01,-1.422260719610584978e+00
6.320000000000000062e-01,-1.447721032126426666e+00
6.340000000000000080e-01,-1.471822780663359698e+00
6.360000000000000098e-01,-1.494542681649029481e+00
6.380000000000000115e-01,-1.515861769874202070e+00
6.400000000000000133e-01,-1.535764944038399138e+00
6.420000000000000151e-01,-1.554240420151129287e+00
6.440000000000000169e-01,-1.571279114475233829e+00
6.460000000000000187e-01,-1.586874022523359962e+00
6.480000000000000204e-01,-1.601019651818783140e+00
6.500000000000000222e-01,-1.613711542580608116e+00
6.520000000000000240e-01,-1.624945911696172640e+00
6.540000000000000258e-01,-1.634719443039077680e+00
6.560000000000000275e-01,-1.643029232622909896e+00
6.580000000000000293e-01,-1.649872881963047710e+00
6.600000000000000311e-01,-1.655235553709760055e+00
6.620000000000000329e-01,-1.659077135022697380e+00
6.640000000000000346e-01,-1.661345803174051117e+00
6.660000000000000364e-01,-1.661991604514836629e+00
6.680000000000000382e-01,-1.660966846587438983e+00
6.700000000000000400e-01,-1.658226442412791046e+00
6.720000000000000417e-01,-1.653728168907797835e+00
6.740000000000000435e-01,-1.647432806018344076e+00
6.760000000000000453e-01,-1.639304131100201234e+00
6.780000000000000471e-01,-1.629308753898321305e+00
6.800000000000000488e-01,-1.617415790317257462e+00
6.820000000000000506e-01,-1.603596386889056813e+00
6.840000000000000524e-01,-1.587823121116910485e+00
6.860000000000000542e-01,-1.570069314390109438e+00
6.880000000000000560e-01,-1.550308302775840419e+00
6.900000000000000577e-01,-1.528512715847626158e+00
6.920000000000000595e-01,-1.504653814367177489e+00
6.940000000000000613e-01,-1.478700934105069420e+00
6.960000000000000631e-01,-1.450621075806590943e+00
6.980000000000000648e-01,-1.420378671082406008e+00
7.000000000000000666e-01,-1.387935541876246459e+00
7.020000000000000684e-01,-1.353251058291315534e+00
7.039999999999999591e-01,-1.316282487071643859e+00
7.059999999999999609e-01,-1.276985511910771365e+00
7.079999999999999627e-01,-1.235314897733172934e+00
7.099999999999999645e-01,-1.191225264610477952e+00
7.119999999999999662e-01,-1.144671933188609936e+00
7.139999999999999680e-01,-1.095611802309266469e+00
7.159999999999999698e-01,-1.044004220610800227e+00
7.179999999999999716e-01,-9.898118168740064338e-01
7.199999999999999734e-01,-9.330135518532072236e-01
7.219999999999999751e-01,-8.736176615366193499e-01
7.239999999999999769e-01,-8.116498826434838110e-01
7.259999999999999787e-01,-7.471415494240748467e-01
7.279999999999999805e-01,-6.801298433820511802e-01
7.299999999999999822e-01,-6.106578938887983199e-01
7.319999999999999840e-01,-5.387747460510201591e-01
7.339999999999999858e-01,-4.645352229796032018e-01
7.359999999999999876e-01,-3.879997171085939334e-01
7.379999999999999893e-01,-3.092339485281604405e-01
7.399999999999999911e-01,-2.282868337893735888e-01
7.419999999999999929e-01,-1.451684096308001881e-01
7.439999999999999947e-01,-5.987162575638148992e-02
7.459999999999999964e-01,2.760579463282566981e-02
7.479999999999999982e-01,1.172613095921557769e-01
7.500000000000000000e-01,2.090874300872328784e-01
7.520000000000000018e-01,3.030715450135465505e-01
7.540000000000000036e-01,3.991957503476520897e-01
7.560000000000000053e-01,4.974367394414029309e-01
7.580000000000000071e-01,5.977658086402750648e-01
7.600000000000000089e-01,7.001142757538594275e-01
7.620000000000000107e-01,8.043391125801117036e-01
7.640000000000000124e-01,9.102582923263341508e-01
7.660000000000000142e-01,1.017686299771958680e+00
7.680000000000000160e-01,1.126435035626743186e+00
7.700000000000000178e-01,1.236314831940777070e+00
7.720000000000000195e-01,1.347135491687619924e+00
7.740000000000000213e-01,1.458707253714162544e+00
7.760000000000000231e-01,1.570841587096172720e+00
