# d=[367.87284522 409.13036753 336.8975626  303.36503701 264.08523418
 255.79082822 268.46756227 239.81218468]
# TotalMass=7.140152630913054T, max_u17=47.244129455708034mm
Time (s), Displacement (mm)
0.000000000000000000e+00,-5.910770047151931805e-05
2.000000000000000042e-03,-2.928811862837601629e-04
4.000000000000000083e-03,-7.524460776472278794e-04
6.000000000000000125e-03,-1.427110584176753292e-03
8.000000000000000167e-03,-2.306059119012171706e-03
1.000000000000000021e-02,-3.378291249445751661e-03
1.200000000000000025e-02,-4.632609722858585695e-03
1.400000000000000029e-02,-6.057680357123826353e-03
1.600000000000000033e-02,-7.642173727763643121e-03
1.800000000000000211e-02,-9.374982876304406229e-03
2.000000000000000042e-02,-1.124550530223341997e-02
2.199999999999999872e-02,-1.324394485180298460e-02
2.400000000000000050e-02,-1.536157124802973312e-02
2.600000000000000228e-02,-1.759091252327022598e-02
2.800000000000000058e-02,-1.992585091231110356e-02
2.999999999999999889e-02,-2.236158435610654041e-02
3.200000000000000067e-02,-2.489444117109185575e-02
3.400000000000000244e-02,-2.752155312170335641e-02
3.600000000000000422e-02,-3.024040931050143988e-02
3.799999999999999906e-02,-3.304832752694202014e-02
4.000000000000000083e-02,-3.594770773477883735e-02
4.200000000000000261e-02,-3.895129325564074957e-02
4.399999999999999745e-02,-4.207584751625358804e-02
4.599999999999999922e-02,-4.533592859302747885e-02
4.800000000000000100e-02,-4.874360318672375098e-02
5.000000000000000278e-02,-5.230828860431392668e-02
5.200000000000000455e-02,-5.603672448640571735e-02
5.399999999999999939e-02,-5.993306629210820580e-02
5.600000000000000117e-02,-6.399908522401391575e-02
5.800000000000000294e-02,-6.823445482816552221e-02
5.999999999999999778e-02,-7.263711272836947952e-02
6.199999999999999956e-02,-7.720366721701121815e-02
6.400000000000000133e-02,-8.192981117059124074e-02
6.600000000000000311e-02,-8.681074824570217396e-02
6.800000000000000488e-02,-9.184162965226330688e-02
7.000000000000000666e-02,-9.701798251040885668e-02
7.200000000000000844e-02,-1.023361216477872426e-01
7.399999999999999634e-02,-1.077935364151683395e-01
7.599999999999999811e-02,-1.133892427794323671e-01
7.799999999999999989e-02,-1.191240891502921284e-01
8.000000000000000167e-02,-1.250009930232335309e-01
8.200000000000000344e-02,-1.310251044851553914e-01
8.400000000000000522e-02,-1.372039033085135362e-01
8.600000000000000699e-02,-1.435471999142804156e-01
8.799999999999999489e-02,-1.500670249219780150e-01
8.999999999999999667e-02,-1.567774177784526657e-01
9.199999999999999845e-02,-1.636941222652299466e-01
9.400000000000000022e-02,-1.708342039214796881e-01
9.600000000000000200e-02,-1.782156108878270306e-01
9.800000000000000377e-02,-1.858567045413188623e-01
1.000000000000000056e-01,-1.937685988061185194e-01
1.020000000000000073e-01,-2.019475334934599242e-01
1.040000000000000091e-01,-2.103816896838557049e-01
1.059999999999999970e-01,-2.190580799254324695e-01
1.079999999999999988e-01,-2.279623411529799748e-01
1.100000000000000006e-01,-2.370786322670807300e-01
1.120000000000000023e-01,-2.463896295278165394e-01
1.140000000000000041e-01,-2.558766026785405656e-01
1.160000000000000059e-01,-2.655195472950223623e-01
1.180000000000000077e-01,-2.752973451239942859e-01
1.199999999999999956e-01,-2.851879244119926438e-01
1.219999999999999973e-01,-2.951683961092733122e-01
1.239999999999999991e-01,-3.052151485281050514e-01
1.260000000000000009e-01,-3.153038913465257553e-01
1.280000000000000027e-01,-3.254096484329692118e-01
1.300000000000000044e-01,-3.355067065478919419e-01
1.320000000000000062e-01,-3.455685325445747025e-01
1.340000000000000080e-01,-3.555676746374646924e-01
1.360000000000000098e-01,-3.654756634997098907e-01
1.380000000000000115e-01,-3.752629267170654037e-01
1.400000000000000133e-01,-3.848987261588778241e-01
1.420000000000000151e-01,-3.943511230512718457e-01
1.440000000000000169e-01,-4.035869709304890640e-01
1.459999999999999909e-01,-4.125719330765123538e-01
1.479999999999999927e-01,-4.212705190814396983e-01
1.499999999999999944e-01,-4.296461351477985358e-01
1.519999999999999962e-01,-4.376611444181447985e-01
1.539999999999999980e-01,-4.452769366512452365e-01
1.559999999999999998e-01,-4.524540101820495042e-01
1.580000000000000016e-01,-4.591520725225940458e-01
1.600000000000000033e-01,-4.653389943975424492e-01
1.620000000000000051e-01,-4.709997931785777636e-01
1.640000000000000069e-01,-4.761280005080445465e-01
1.660000000000000087e-01,-4.807170819824487795e-01
1.680000000000000104e-01,-4.847607317248265879e-01
1.700000000000000122e-01,-4.882532051807345064e-01
1.720000000000000140e-01,-4.911896869608619043e-01
1.740000000000000158e-01,-4.935666891444500104e-01
1.759999999999999898e-01,-4.953824736299553000e-01
1.779999999999999916e-01,-4.966374899104732954e-01
1.799999999999999933e-01,-4.973348172229784536e-01
1.819999999999999951e-01,-4.974805976356234116e-01
1.839999999999999969e-01,-4.970844446195997746e-01
1.859999999999999987e-01,-4.961598103358419443e-01
1.880000000000000004e-01,-4.947242945446905238e-01
1.900000000000000022e-01,-4.927998789184378503e-01
1.920000000000000040e-01,-4.904130726717390032e-01
1.940000000000000058e-01,-4.875949587447878653e-01
1.960000000000000075e-01,-4.843811340583447089e-01
1.980000000000000093e-01,-4.808115422709030584e-01
2.000000000000000111e-01,-4.769302025942682710e-01
2.020000000000000129e-01,-4.727848431293246723e-01
2.040000000000000147e-01,-4.684264514645196664e-01
2.060000000000000164e-01,-4.639087586098280536e-01
2.080000000000000182e-01,-4.592876745059578658e-01
2.099999999999999922e-01,-4.546206942701813136e-01
2.119999999999999940e-01,-4.499662940640244968e-01
2.139999999999999958e-01,-4.453833341534534362e-01
2.159999999999999976e-01,-4.409304846188177307e-01
2.179999999999999993e-01,-4.366656865406602361e-01
2.200000000000000011e-01,-4.326345991918104650e-01
2.220000000000000029e-01,-4.288591094314288532e-01
2.240000000000000047e-01,-4.253480289301509454e-01
2.260000000000000064e-01,-4.221078496934176361e-01
2.280000000000000082e-01,-4.191425039965629984e-01
2.300000000000000100e-01,-4.164531945694791570e-01
2.320000000000000118e-01,-4.140382835192817357e-01
2.340000000000000135e-01,-4.118932226848672773e-01
2.360000000000000153e-01,-4.100105046771150841e-01
2.380000000000000171e-01,-4.083796133738629708e-01
2.399999999999999911e-01,-4.069869552541804936e-01
2.419999999999999929e-01,-4.058157583455156980e-01
2.439999999999999947e-01,-4.048459329833336007e-01
2.459999999999999964e-01,-4.040538970170414190e-01
2.479999999999999982e-01,-4.034123763771377269e-01
2.500000000000000000e-01,-4.028901989314317422e-01
2.520000000000000018e-01,-4.024521043988568136e-01
2.540000000000000036e-01,-4.020585951890600640e-01
2.560000000000000053e-01,-4.016658522272739673e-01
2.580000000000000071e-01,-4.012257363437903845e-01
2.600000000000000089e-01,-4.006952843853435198e-01
2.620000000000000107e-01,-4.000463058650653436e-01
2.640000000000000124e-01,-3.992562908664387678e-01
2.660000000000000142e-01,-3.982994226727211151e-01
2.680000000000000160e-01,-3.971470735498481841e-01
2.700000000000000178e-01,-3.957683679209396121e-01
2.720000000000000195e-01,-3.941308034354197298e-01
2.740000000000000213e-01,-3.922009240968772903e-01
2.760000000000000231e-01,-3.899450426799308533e-01
2.780000000000000249e-01,-3.873300110677864172e-01
2.800000000000000266e-01,-3.843188934122039324e-01
2.820000000000000284e-01,-3.808666835926765581e-01
2.840000000000000302e-01,-3.769263421553488702e-01
2.860000000000000320e-01,-3.724548427323870481e-01
2.880000000000000338e-01,-3.674140619385620199e-01
2.899999999999999800e-01,-3.617716272802973254e-01
2.919999999999999818e-01,-3.555016831854350690e-01
2.939999999999999836e-01,-3.485855323048566157e-01
2.959999999999999853e-01,-3.410121109189326316e-01
2.979999999999999871e-01,-3.327782638494664047e-01
2.999999999999999889e-01,-3.238887854431327651e-01
3.019999999999999907e-01,-3.143562269932946296e-01
3.039999999999999925e-01,-3.042004965627898017e-01
3.059999999999999942e-01,-2.934482535207554310e-01
3.079999999999999960e-01,-2.821321233873039236e-01
3.099999999999999978e-01,-2.702897880559174681e-01
3.119999999999999996e-01,-2.579630019579549627e-01
3.140000000000000013e-01,-2.451965851043263755e-01
3.160000000000000031e-01,-2.320374396851178356e-01
3.180000000000000049e-01,-2.185336289082498440e-01
3.200000000000000067e-01,-2.047396490728998208e-01
3.220000000000000084e-01,-1.907218035927351063e-01
3.240000000000000102e-01,-1.765514780496751368e-01
3.260000000000000120e-01,-1.622985255598416166e-01
3.280000000000000138e-01,-1.480308522519508951e-01
3.300000000000000155e-01,-1.338140819405417847e-01
3.320000000000000173e-01,-1.197112899153003063e-01
3.340000000000000191e-01,-1.057827994541025579e-01
3.360000000000000209e-01,-9.208603851764507464e-02
3.380000000000000226e-01,-7.867545684152188468e-02
3.400000000000000244e-01,-6.560250439883191786e-02
3.420000000000000262e-01,-5.291567055509067280e-02
3.440000000000000280e-01,-4.066057932752031867e-02
3.460000000000000298e-01,-2.888013065916499728e-02
3.480000000000000315e-01,-1.761467157543556566e-02
3.500000000000000333e-01,-6.902175742971886248e-03
3.519999999999999796e-01,3.221593507652316044e-03
3.539999999999999813e-01,1.272296226668037655e-02
3.559999999999999831e-01,2.157029010660002633e-02
3.579999999999999849e-01,2.973399596563860645e-02
3.599999999999999867e-01,3.718667389717027205e-02
3.619999999999999885e-01,4.390329614588939222e-02
3.639999999999999902e-01,4.986148994515093164e-02
3.659999999999999920e-01,5.504186428364023914e-02
3.679999999999999938e-01,5.942835496383649246e-02
3.699999999999999956e-01,6.300855157755703984e-02
3.719999999999999973e-01,6.577396913080538199e-02
3.739999999999999991e-01,6.772023003343394243e-02
3.760000000000000009e-01,6.884712860412571522e-02
3.780000000000000027e-01,6.915855928593861446e-02
3.800000000000000044e-01,6.866230030003708795e-02
3.820000000000000062e-01,6.736965525393072418e-02
3.840000000000000080e-01,6.529496510173195267e-02
3.860000000000000098e-01,6.245501088634675124e-02
3.880000000000000115e-01,5.886833326907905950e-02
3.900000000000000133e-01,5.455449774814965375e-02
3.920000000000000151e-01,4.953333483601352061e-02
3.940000000000000169e-01,4.382418276522380418e-02
3.960000000000000187e-01,3.744515718098245100e-02
3.980000000000000204e-01,3.041246847999084374e-02
4.000000000000000222e-01,2.276408735694568364e-02
4.020000000000000240e-01,1.458346710740772434e-02
4.040000000000000258e-01,5.974761016184194917e-03
4.060000000000000275e-01,-2.961860643351747931e-03
4.080000000000000293e-01,-1.213051450007148618e-02
4.100000000000000311e-01,-2.143982350435626530e-02
4.120000000000000329e-01,-3.080302787694832317e-02
4.140000000000000346e-01,-4.013795549209045466e-02
4.160000000000000364e-01,-4.936681725071814103e-02
4.179999999999999827e-01,-5.841579784211013704e-02
4.199999999999999845e-01,-6.721441466057634373e-02
4.219999999999999862e-01,-7.569465552776795392e-02
4.239999999999999880e-01,-8.378993773942659817e-02
4.259999999999999898e-01,-9.143391456413793583e-02
4.279999999999999916e-01,-9.855918534765055472e-02
4.299999999999999933e-01,-1.050959995614603737e-01
4.319999999999999951e-01,-1.109710420265595660e-01
4.339999999999999969e-01,-1.161063841963512755e-01
4.359999999999999987e-01,-1.204186751045133313e-01
4.380000000000000004e-01,-1.238186267158665060e-01
4.400000000000000022e-01,-1.262447666621599740e-01
4.420000000000000040e-01,-1.276974905921784420e-01
4.440000000000000058e-01,-1.282055010330053202e-01
4.460000000000000075e-01,-1.277925136955451180e-01
4.480000000000000093e-01,-1.264780981325072939e-01
4.500000000000000111e-01,-1.242786186314319141e-01
4.520000000000000129e-01,-1.212082331994126794e-01
4.540000000000000147e-01,-1.172799281540151950e-01
4.560000000000000164e-01,-1.125065837473225444e-01
4.580000000000000182e-01,-1.069020784011838338e-01
4.600000000000000200e-01,-1.004824429045316214e-01
4.620000000000000218e-01,-9.326707049502411251e-02
4.640000000000000235e-01,-8.527997515839431941e-02
4.660000000000000253e-01,-7.655107139760650159e-02
4.680000000000000271e-01,-6.711742793656062800e-02
4.700000000000000289e-01,-5.702442954020305044e-02
4.720000000000000306e-01,-4.632676923978785305e-02
4.740000000000000324e-01,-3.508919063909049507e-02
4.760000000000000342e-01,-2.338690805512195700e-02
4.780000000000000360e-01,-1.130565071418711612e-02
4.799999999999999822e-01,1.071391202436656077e-03
4.819999999999999840e-01,1.367700710296012277e-02
4.839999999999999858e-01,2.644836160824124913e-02
4.859999999999999876e-01,3.931568256592829491e-02
4.879999999999999893e-01,5.220383977344644766e-02
4.899999999999999911e-01,6.503400620140756261e-02
4.919999999999999929e-01,7.772530595738855186e-02
4.939999999999999947e-01,9.019636757089552481e-02
4.959999999999999964e-01,1.023667222035921226e-01
4.979999999999999982e-01,1.141580105463150668e-01
5.000000000000000000e-01,1.254850626905446853e-01
5.020000000000000018e-01,1.362467901238047785e-01
5.040000000000000036e-01,1.463367595373560592e-01
5.060000000000000053e-01,1.556536191087362075e-01
5.080000000000000071e-01,1.641014875931733619e-01
5.100000000000000089e-01,1.715902598278494229e-01
5.120000000000000107e-01,1.780358357509681799e-01
5.140000000000000124e-01,1.833602665396800724e-01
5.160000000000000142e-01,1.874918015376621505e-01
5.180000000000000160e-01,1.903648157058246693e-01
5.200000000000000178e-01,1.919195907412854785e-01
5.220000000000000195e-01,1.921019526691662982e-01
5.240000000000000213e-01,1.908627937726780910e-01
5.260000000000000231e-01,1.881574853464083874e-01
5.280000000000000249e-01,1.839452147170745067e-01
5.300000000000000266e-01,1.781883128577089470e-01
5.320000000000000284e-01,1.708516359194903189e-01
5.340000000000000302e-01,1.619020627222401143e-01
5.360000000000000320e-01,1.513081605405218744e-01
5.380000000000000338e-01,1.390400543854533877e-01
5.400000000000000355e-01,1.250695223535991940e-01
5.420000000000000373e-01,1.093702952569271386e-01
5.440000000000000391e-01,9.191850516668216564e-02
5.460000000000000409e-01,7.269324700859400301e-02
5.480000000000000426e-01,5.167719444857178657e-02
5.500000000000000444e-01,2.885718675799582578e-02
5.520000000000000462e-01,4.224716687241441594e-03
5.540000000000000480e-01,-2.222373942111717168e-02
5.560000000000000497e-01,-5.048659098755667318e-02
5.580000000000000515e-01,-8.055722329560656425e-02
5.600000000000000533e-01,-1.123990354702221056e-01
5.620000000000000551e-01,-1.459207026905419147e-01
5.640000000000000568e-01,-1.810021803444172017e-01
5.660000000000000586e-01,-2.175208313328881038e-01
5.680000000000000604e-01,-2.553523686017420413e-01
5.700000000000000622e-01,-2.943718583611329986e-01
5.720000000000000639e-01,-3.344547240287303880e-01
5.740000000000000657e-01,-3.754776882249092895e-01
5.760000000000000675e-01,-4.173195930778889062e-01
5.779999999999999583e-01,-4.598620475032133559e-01
5.799999999999999600e-01,-5.029898729591127937e-01
5.819999999999999618e-01,-5.465913158630884006e-01
5.839999999999999636e-01,-5.905580028574133333e-01
5.859999999999999654e-01,-6.347846717664312743e-01
5.879999999999999671e-01,-6.791687166963882305e-01
5.899999999999999689e-01,-7.236095781599753973e-01
5.919999999999999707e-01,-7.680080266982565185e-01
5.939999999999999725e-01,-8.122653917331814633e-01
5.959999999999999742e-01,-8.562827863903027525e-01
5.979999999999999760e-01,-8.999603745065241078e-01
5.999999999999999778e-01,-9.432106290021849970e-01
6.019999999999999796e-01,-9.859716902375488257e-01
6.039999999999999813e-01,-1.028193023494456515e+00
6.059999999999999831e-01,-1.069821225556481625e+00
6.079999999999999849e-01,-1.110799890396368950e+00
6.099999999999999867e-01,-1.151069615039715277e+00
6.119999999999999885e-01,-1.190568152892832021e+00
6.139999999999999902e-01,-1.229230723895524902e+00
6.159999999999999920e-01,-1.266990490553437487e+00
6.179999999999999938e-01,-1.303779205000258123e+00
6.199999999999999956e-01,-1.339528014483604590e+00
6.219999999999999973e-01,-1.374168420654096945e+00
6.239999999999999991e-01,-1.407633383767091129e+00
6.260000000000000009e-01,-1.439858509031565204e+00
6.280000000000000027e-01,-1.470783249002183046e+00
6.300000000000000044e-01,-1.500352065996719553e+00
6.320000000000000062e-01,-1.528515484577574357e+00
6.340000000000000080e-01,-1.555230966437445961e+00
6.360000000000000098e-01,-1.580463548989959222e+00
6.380000000000000115e-01,-1.604186203915809239e+00
6.400000000000000133e-01,-1.626379901180625254e+00
6.420000000000000151e-01,-1.647033366374369701e+00
6.440000000000000169e-01,-1.666142531481130451e+00
6.460000000000000187e-01,-1.683709738233510445e+00
6.480000000000000204e-01,-1.699742759075316245e+00
6.500000000000000222e-01,-1.714253691301688587e+00
6.520000000000000240e-01,-1.727257793721446610e+00
6.540000000000000258e-01,-1.738772333126726188e+00
6.560000000000000275e-01,-1.748815500605987117e+00
6.580000000000000293e-01,-1.757405446660700532e+00
6.600000000000000311e-01,-1.764546305310509267e+00
6.620000000000000329e-01,-1.770214406153250986e+00
6.640000000000000346e-01,-1.774371017322012412e+00
6.660000000000000364e-01,-1.776975271432381209e+00
6.680000000000000382e-01,-1.777984105606132514e+00
6.700000000000000400e-01,-1.777352375143822938e+00
6.720000000000000417e-01,-1.775033111920028661e+00
6.740000000000000435e-01,-1.770977891387075509e+00
6.760000000000000453e-01,-1.765137268328271114e+00
6.780000000000000471e-01,-1.757461241229613114e+00
6.800000000000000488e-01,-1.747899707996556140e+00
6.820000000000000506e-01,-1.736402881096583695e+00
6.840000000000000524e-01,-1.722921637251100702e+00
6.860000000000000542e-01,-1.707407784670280204e+00
6.880000000000000560e-01,-1.689814238722253892e+00
6.900000000000000577e-01,-1.670095104210875370e+00
6.920000000000000595e-01,-1.648205668679151970e+00
6.940000000000000613e-01,-1.624102316166730731e+00
6.960000000000000631e-01,-1.597742374645833241e+00
6.980000000000000648e-01,-1.569083913108560102e+00
7.000000000000000666e-01,-1.538085506223946020e+00
7.020000000000000684e-01,-1.504705985867236029e+00
7.039999999999999591e-01,-1.468904199817221423e+00
7.059999999999999609e-01,-1.430638798574974002e+00
7.079999999999999627e-01,-1.389868071504142044e+00
7.099999999999999645e-01,-1.346549853142193776e+00
7.119999999999999662e-01,-1.300641519329129414e+00
7.139999999999999680e-01,-1.252100090485756656e+00
7.159999999999999698e-01,-1.200882455751890232e+00
7.179999999999999716e-01,-1.146945726695458578e+00
7.199999999999999734e-01,-1.090260016721328995e+00
7.219999999999999751e-01,-1.030821336901634133e+00
7.239999999999999769e-01,-9.686400056004165204e-01
7.259999999999999787e-01,-9.037291530792060934e-01
7.279999999999999805e-01,-8.361055812783669827e-01
7.299999999999999822e-01,-7.657906430638737882e-01
7.319999999999999840e-01,-6.928111135022212430e-01
7.339999999999999858e-01,-6.172000293402237769e-01
7.359999999999999876e-01,-5.389974764944868157e-01
7.379999999999999893e-01,-4.582513082458994358e-01
7.399999999999999911e-01,-3.749958850102697583e-01
7.419999999999999929e-01,-2.892307333224455879e-01
7.439999999999999947e-01,-2.009429003383572387e-01
7.459999999999999964e-01,-1.101291753883671121e-01
7.479999999999999982e-01,-1.679627950836131561e-02
7.500000000000000000e-01,7.903908305061010942e-02
7.520000000000000018e-01,1.773503409171504619e-01
7.540000000000000036e-01,2.781013732838519270e-01
7.560000000000000053e-01,3.812470612372804712e-01
7.580000000000000071e-01,4.867340957129377976e-01
7.600000000000000089e-01,5.944673036946266365e-01
7.620000000000000107e-01,7.042762551217187639e-01
7.640000000000000124e-01,8.159516124236693146e-01
7.660000000000000142e-01,9.292816323853342331e-01
7.680000000000000160e-01,1.044054014461240021e+00
7.700000000000000178e-01,1.160057777001391344e+00
7.720000000000000195e-01,1.277085041850668290e+00
7.740000000000000213e-01,1.394932598849320637e+00
7.760000000000000231e-01,1.513403128169284795e+00
