# d=[353.71362697 302.94215704 277.35133487 234.07570739 229.96580766
 223.88632173 200.87944983 200.66884738]
# TotalMass=4.996760929147234T, max_u17=62.313317438087495mm
Time (s), Displacement (mm)
0.000000000000000000e+00,-5.911179082130551215e-05
2.000000000000000042e-03,-2.929121147022352759e-04
4.000000000000000083e-03,-7.525712093689055152e-04
6.000000000000000125e-03,-1.427483639747815277e-03
8.000000000000000167e-03,-2.306984326348353927e-03
1.000000000000000021e-02,-3.380297250421646083e-03
1.200000000000000025e-02,-4.636498713837824970e-03
1.400000000000000029e-02,-6.064507332462781494e-03
1.600000000000000033e-02,-7.653109972439911535e-03
1.800000000000000211e-02,-9.391028482380965950e-03
2.000000000000000042e-02,-1.126703666749831294e-02
2.199999999999999872e-02,-1.327011191730648014e-02
2.400000000000000050e-02,-1.538959107015373633e-02
2.600000000000000228e-02,-1.761533523919759855e-02
2.800000000000000058e-02,-1.993789591627030677e-02
2.999999999999999889e-02,-2.234865424277497278e-02
3.200000000000000067e-02,-2.483991618848764571e-02
3.400000000000000244e-02,-2.740494921121342659e-02
3.600000000000000422e-02,-3.003795031243321201e-02
3.799999999999999906e-02,-3.273394082868859994e-02
4.000000000000000083e-02,-3.549440836488845091e-02
4.200000000000000261e-02,-3.833287999991082801e-02
4.399999999999999745e-02,-4.126880090416758240e-02
4.599999999999999922e-02,-4.432137981767306917e-02
4.800000000000000100e-02,-4.750923759895355619e-02
5.000000000000000278e-02,-5.085005557842228047e-02
5.200000000000000455e-02,-5.436024499666243515e-02
5.399999999999999939e-02,-5.805465778483170219e-02
5.600000000000000117e-02,-6.194635633627175453e-02
5.800000000000000294e-02,-6.604645597291065873e-02
5.999999999999999778e-02,-7.036405869196789287e-02
6.199999999999999956e-02,-7.490627174224427642e-02
6.400000000000000133e-02,-7.967828930832702994e-02
6.600000000000000311e-02,-8.468354971388689090e-02
6.800000000000000488e-02,-8.992396649632257433e-02
7.000000000000000666e-02,-9.540020898031174867e-02
7.200000000000000844e-02,-1.011120159571471250e-01
7.399999999999999634e-02,-1.070585255996734514e-01
7.599999999999999811e-02,-1.132386055319474644e-01
7.799999999999999989e-02,-1.196511688336170109e-01
8.000000000000000167e-02,-1.262954546141250856e-01
8.200000000000000344e-02,-1.331712745013244048e-01
8.400000000000000522e-02,-1.402792394011701249e-01
8.600000000000000699e-02,-1.476209446998228703e-01
8.799999999999999489e-02,-1.551991044263378583e-01
8.999999999999999667e-02,-1.630176463648142504e-01
9.199999999999999845e-02,-1.710817714205308815e-01
9.400000000000000022e-02,-1.793979809220629384e-01
9.600000000000000200e-02,-1.879740752752308286e-01
9.800000000000000377e-02,-1.968191266462364919e-01
1.000000000000000056e-01,-2.059362367628600476e-01
1.020000000000000073e-01,-2.153152760876685945e-01
1.040000000000000091e-01,-2.249399857651692425e-01
1.059999999999999970e-01,-2.347950526800858806e-01
1.079999999999999988e-01,-2.448659696800200847e-01
1.100000000000000006e-01,-2.551388777896806959e-01
1.120000000000000023e-01,-2.656003902574693987e-01
1.140000000000000041e-01,-2.762373982928834626e-01
1.160000000000000059e-01,-2.870368589031830897e-01
1.180000000000000077e-01,-2.979855662911362613e-01
1.199999999999999956e-01,-3.090699097298666986e-01
1.219999999999999973e-01,-3.202756225243040822e-01
1.239999999999999991e-01,-3.315875284011750024e-01
1.260000000000000009e-01,-3.429892932244882342e-01
1.280000000000000027e-01,-3.544631911031806970e-01
1.300000000000000044e-01,-3.659898945672091508e-01
1.320000000000000062e-01,-3.775482984167247147e-01
1.340000000000000080e-01,-3.891153860421785460e-01
1.360000000000000098e-01,-4.006661454907181619e-01
1.380000000000000115e-01,-4.121735404071378284e-01
1.400000000000000133e-01,-4.236085383595328269e-01
1.420000000000000151e-01,-4.349401961711955589e-01
1.440000000000000169e-01,-4.461357989484980302e-01
1.459999999999999909e-01,-4.571610467513589904e-01
1.479999999999999927e-01,-4.679802805124987919e-01
1.499999999999999944e-01,-4.785567370504169027e-01
1.519999999999999962e-01,-4.888528219617268578e-01
1.539999999999999980e-01,-4.988303888803344854e-01
1.559999999999999998e-01,-5.084510140459599370e-01
1.580000000000000016e-01,-5.176762562607316598e-01
1.600000000000000033e-01,-5.264767206067234584e-01
1.620000000000000051e-01,-5.348410870505111436e-01
1.640000000000000069e-01,-5.427674464315849212e-01
1.660000000000000087e-01,-5.502546051695885732e-01
1.680000000000000104e-01,-5.573021819928823950e-01
1.700000000000000122e-01,-5.639106649713481190e-01
1.720000000000000140e-01,-5.700814343868653156e-01
1.740000000000000158e-01,-5.758167597867032139e-01
1.759999999999999898e-01,-5.811197815421755841e-01
1.779999999999999916e-01,-5.859944881966198116e-01
1.799999999999999933e-01,-5.904457007602933460e-01
1.819999999999999951e-01,-5.944790739325968021e-01
1.839999999999999969e-01,-5.981011221434424652e-01
1.859999999999999987e-01,-6.013192755304350712e-01
1.880000000000000004e-01,-6.041419677918888897e-01
1.900000000000000022e-01,-6.065787545908697398e-01
1.920000000000000040e-01,-6.086404581402899971e-01
1.940000000000000058e-01,-6.103393310452190912e-01
1.960000000000000075e-01,-6.116892306259330558e-01
1.980000000000000093e-01,-6.127057939238805817e-01
2.000000000000000111e-01,-6.134066034437968273e-01
2.020000000000000129e-01,-6.138113343615155815e-01
2.040000000000000147e-01,-6.139418753030578824e-01
2.060000000000000164e-01,-6.138224166897311429e-01
2.080000000000000182e-01,-6.134795028215108692e-01
2.099999999999999922e-01,-6.129420460997998532e-01
2.119999999999999940e-01,-6.122413038472728219e-01
2.139999999999999958e-01,-6.114108198802584715e-01
2.159999999999999976e-01,-6.104863341962661893e-01
2.179999999999999993e-01,-6.095056647902696856e-01
2.200000000000000011e-01,-6.084975055179639991e-01
2.220000000000000029e-01,-6.074702115963280802e-01
2.240000000000000047e-01,-6.064226966437414879e-01
2.260000000000000064e-01,-6.053553107311507864e-01
2.280000000000000082e-01,-6.042696451060695084e-01
2.300000000000000100e-01,-6.031683333305553063e-01
2.320000000000000118e-01,-6.020548462149865054e-01
2.340000000000000135e-01,-6.009332753736276178e-01
2.360000000000000153e-01,-5.998080985526027531e-01
2.380000000000000171e-01,-5.986839193563312511e-01
2.399999999999999911e-01,-5.975651747513470724e-01
2.419999999999999929e-01,-5.964558057296774907e-01
2.439999999999999947e-01,-5.953588895932551139e-01
2.459999999999999964e-01,-5.942762361740762111e-01
2.479999999999999982e-01,-5.932079545360582351e-01
2.500000000000000000e-01,-5.921520008693716974e-01
2.520000000000000018e-01,-5.911037219430441692e-01
2.540000000000000036e-01,-5.900554112317846212e-01
2.560000000000000053e-01,-5.889958963722617957e-01
2.580000000000000071e-01,-5.879101767463033035e-01
2.600000000000000089e-01,-5.867885234822128870e-01
2.620000000000000107e-01,-5.856356553987003277e-01
2.640000000000000124e-01,-5.844612118867008599e-01
2.660000000000000142e-01,-5.832703290996519296e-01
2.680000000000000160e-01,-5.820637115806218675e-01
2.700000000000000178e-01,-5.808377929861315847e-01
2.720000000000000195e-01,-5.795849796061677273e-01
2.740000000000000213e-01,-5.782939685479736580e-01
2.760000000000000231e-01,-5.769501312701984519e-01
2.780000000000000249e-01,-5.755359525483141336e-01
2.800000000000000266e-01,-5.740263716657032500e-01
2.820000000000000284e-01,-5.723841626274641659e-01
2.840000000000000302e-01,-5.705656303356251291e-01
2.860000000000000320e-01,-5.685263215555751426e-01
2.880000000000000338e-01,-5.662216008048710503e-01
2.899999999999999800e-01,-5.636072298114782608e-01
2.919999999999999818e-01,-5.606399406418882680e-01
2.939999999999999836e-01,-5.572779913710561583e-01
2.959999999999999853e-01,-5.534816921143432822e-01
2.979999999999999871e-01,-5.492138886022155386e-01
2.999999999999999889e-01,-5.444403806619853015e-01
3.019999999999999907e-01,-5.391302733230376454e-01
3.039999999999999925e-01,-5.332562696560996240e-01
3.059999999999999942e-01,-5.267948777074549227e-01
3.079999999999999960e-01,-5.197265168927457379e-01
3.099999999999999978e-01,-5.120355325675985947e-01
3.119999999999999996e-01,-5.037101217570069123e-01
3.140000000000000013e-01,-4.947421771197964002e-01
3.160000000000000031e-01,-4.851270600383245091e-01
3.180000000000000049e-01,-4.748633169651135244e-01
3.200000000000000067e-01,-4.639584587670959048e-01
3.220000000000000084e-01,-4.524347136104079903e-01
3.240000000000000102e-01,-4.403225649806896680e-01
3.260000000000000120e-01,-4.276543053849574116e-01
3.280000000000000138e-01,-4.144637218635159881e-01
3.300000000000000155e-01,-4.007858178155642159e-01
3.320000000000000173e-01,-3.866565818302204471e-01
3.340000000000000191e-01,-3.721128117275407932e-01
3.360000000000000209e-01,-3.571919991688773943e-01
3.380000000000000226e-01,-3.419322771148166629e-01
3.400000000000000244e-01,-3.263724292314510445e-01
3.420000000000000262e-01,-3.105519572193498057e-01
3.440000000000000280e-01,-2.945111991103048776e-01
3.460000000000000298e-01,-2.782914889814711579e-01
3.480000000000000315e-01,-2.619353463947588501e-01
3.500000000000000333e-01,-2.454866822768106416e-01
3.519999999999999796e-01,-2.289910069772361223e-01
3.539999999999999813e-01,-2.124956259128657488e-01
3.559999999999999831e-01,-1.960498085234430587e-01
3.579999999999999849e-01,-1.797049171977652127e-01
3.599999999999999867e-01,-1.635144843192605779e-01
3.619999999999999885e-01,-1.475342275439781026e-01
3.639999999999999902e-01,-1.318219957628189165e-01
3.659999999999999920e-01,-1.164376408040564276e-01
3.679999999999999938e-01,-1.014428126881827680e-01
3.699999999999999956e-01,-8.690067904306182645e-02
3.719999999999999973e-01,-7.287557201825112241e-02
3.739999999999999991e-01,-5.943256860895349686e-02
3.760000000000000009e-01,-4.663701263167380900e-02
3.780000000000000027e-01,-3.455398861960499307e-02
3.800000000000000044e-01,-2.324775957570488980e-02
3.820000000000000062e-01,-1.278118179969733002e-02
3.840000000000000080e-01,-3.215110869547675373e-03
3.860000000000000098e-01,5.392186702255019962e-03
3.880000000000000115e-01,1.298560160254927029e-02
3.900000000000000133e-01,1.951371550858942150e-02
3.920000000000000151e-01,2.492928720661628794e-02
3.940000000000000169e-01,2.918967888904740529e-02
3.960000000000000187e-01,3.225721200951275902e-02
3.980000000000000204e-01,3.409944391206239100e-02
4.000000000000000222e-01,3.471364395505095041e-02
4.020000000000000240e-01,3.415116251233091260e-02
4.040000000000000258e-01,3.249311895386289284e-02
4.060000000000000275e-01,2.982600675112971611e-02
4.080000000000000293e-01,2.624149370473935483e-02
4.100000000000000311e-01,2.183611698021564740e-02
4.120000000000000329e-01,1.671088580729187395e-02
4.140000000000000346e-01,1.097081195544161690e-02
4.160000000000000364e-01,4.724394044618881322e-03
4.179999999999999827e-01,-1.916914294300478983e-03
4.199999999999999845e-01,-8.839211105154952050e-03
4.219999999999999862e-01,-1.592660712310582996e-02
4.239999999999999880e-01,-2.306163422085430806e-02
4.259999999999999898e-01,-3.012556133089114990e-02
4.279999999999999916e-01,-3.699859562421110859e-02
4.299999999999999933e-01,-4.355997530997637868e-02
4.319999999999999951e-01,-4.968795985996386777e-02
4.339999999999999969e-01,-5.525973214811909923e-02
4.359999999999999987e-01,-6.015123437755479086e-02
4.380000000000000004e-01,-6.423696513780173534e-02
4.400000000000000022e-01,-6.742371278750060315e-02
4.420000000000000040e-01,-6.968428804914719721e-02
4.440000000000000058e-01,-7.102339407921307024e-02
4.460000000000000075e-01,-7.144358608833739632e-02
4.480000000000000093e-01,-7.094527005225798044e-02
4.500000000000000111e-01,-6.952677986661086329e-02
4.520000000000000129e-01,-6.718454527168292445e-02
4.540000000000000147e-01,-6.391336299010821898e-02
4.560000000000000164e-01,-5.970678301096343787e-02
4.580000000000000182e-01,-5.455762042557826125e-02
4.600000000000000200e-01,-4.845860039376988920e-02
4.620000000000000218e-01,-4.140313956263746292e-02
4.640000000000000235e-01,-3.338626161264721115e-02
4.660000000000000253e-01,-2.440563778876228204e-02
4.680000000000000271e-01,-1.446273567920674553e-02
4.700000000000000289e-01,-3.564051655308261152e-03
4.720000000000000306e-01,8.277605112512069485e-03
4.740000000000000324e-01,2.104181566815793367e-02
4.760000000000000342e-01,3.469928487239813675e-02
4.780000000000000360e-01,4.921065204978092994e-02
4.799999999999999822e-01,6.453812182746418435e-02
4.819999999999999840e-01,8.065725502758337717e-02
4.839999999999999858e-01,9.754356684662880694e-02
4.859999999999999876e-01,1.151593720184327929e-01
4.879999999999999893e-01,1.334535921404667869e-01
4.899999999999999911e-01,1.523618325562755837e-01
4.919999999999999929e-01,1.718067348194967370e-01
4.939999999999999947e-01,1.916986025743363797e-01
4.959999999999999964e-01,2.119362906105784761e-01
4.979999999999999982e-01,2.324083391530960274e-01
5.000000000000000000e-01,2.529844045682164144e-01
5.020000000000000018e-01,2.735068859354262694e-01
5.040000000000000036e-01,2.938025591402351200e-01
5.060000000000000053e-01,3.136943195036916987e-01
5.080000000000000071e-01,3.330030702680113475e-01
5.100000000000000089e-01,3.515496445532316772e-01
5.120000000000000107e-01,3.691567141711985522e-01
5.140000000000000124e-01,3.856506378900924070e-01
5.160000000000000142e-01,4.008632026405223869e-01
5.180000000000000160e-01,4.146332138909007425e-01
5.200000000000000178e-01,4.268078862317031263e-01
5.220000000000000195e-01,4.372440111938597496e-01
5.240000000000000213e-01,4.458088970582949062e-01
5.260000000000000231e-01,4.523810453723449698e-01
5.280000000000000249e-01,4.568505486291186135e-01
5.300000000000000266e-01,4.591192233555628222e-01
5.320000000000000284e-01,4.591004929657840350e-01
5.340000000000000302e-01,4.567190438470136726e-01
5.360000000000000320e-01,4.519102859718372445e-01
5.380000000000000338e-01,4.446196554755637020e-01
5.400000000000000355e-01,4.348018106133414995e-01
5.420000000000000373e-01,4.224197549692147446e-01
5.440000000000000391e-01,4.074439119140321197e-01
5.460000000000000409e-01,3.898512113892710351e-01
5.480000000000000426e-01,3.696242363607357140e-01
5.500000000000000444e-01,3.467504512829824304e-01
5.520000000000000462e-01,3.212215382152069365e-01
5.540000000000000480e-01,2.930328590393334598e-01
5.560000000000000497e-01,2.621830547702508896e-01
5.580000000000000515e-01,2.286737856016731740e-01
5.600000000000000533e-01,1.925348832772010021e-01
5.620000000000000551e-01,1.538496139710925081e-01
5.640000000000000568e-01,1.127294860326998327e-01
5.660000000000000586e-01,6.928916107921315182e-02
5.680000000000000604e-01,2.364671004488631129e-02
5.700000000000000622e-01,-2.407610646265876883e-02
5.720000000000000639e-01,-7.375355402276242978e-02
5.740000000000000657e-01,-1.252556519246285360e-01
5.760000000000000675e-01,-1.784479229580583637e-01
5.779999999999999583e-01,-2.331911721994788245e-01
5.799999999999999600e-01,-2.893413089113604508e-01
5.819999999999999618e-01,-3.467492053866814139e-01
5.839999999999999636e-01,-4.052605777825485367e-01
5.859999999999999654e-01,-4.647159155814780673e-01
5.879999999999999671e-01,-5.249504797847268645e-01
5.899999999999999689e-01,-5.857943738414508328e-01
5.919999999999999707e-01,-6.470727041208811370e-01
5.939999999999999725e-01,-7.086058485492420234e-01
5.959999999999999742e-01,-7.702098520974615115e-01
5.979999999999999760e-01,-8.316969657441881658e-01
5.999999999999999778e-01,-8.928902521762617228e-01
6.019999999999999796e-01,-9.536383434574916551e-01
6.039999999999999813e-01,-1.013802525684214251e+00
6.059999999999999831e-01,-1.073243976075208161e+00
6.079999999999999849e-01,-1.131825035814885805e+00
6.099999999999999867e-01,-1.189410564943132353e+00
6.119999999999999885e-01,-1.245869342986763328e+00
6.139999999999999902e-01,-1.301075475853106012e+00
6.159999999999999920e-01,-1.354909768342199117e+00
6.179999999999999938e-01,-1.407261022496711700e+00
6.199999999999999956e-01,-1.458027214976495678e+00
6.219999999999999973e-01,-1.507116530658239695e+00
6.239999999999999991e-01,-1.554448245161491382e+00
6.260000000000000009e-01,-1.599953416396830086e+00
6.280000000000000027e-01,-1.643575362076982183e+00
6.300000000000000044e-01,-1.685269926778887095e+00
6.320000000000000062e-01,-1.725005539026331025e+00
6.340000000000000080e-01,-1.762763064881461395e+00
6.360000000000000098e-01,-1.798535469670331288e+00
6.380000000000000115e-01,-1.832327303605815194e+00
6.400000000000000133e-01,-1.864154039984377231e+00
6.420000000000000151e-01,-1.894041277187032524e+00
6.440000000000000169e-01,-1.922023807234890080e+00
6.460000000000000187e-01,-1.948144593470053421e+00
6.480000000000000204e-01,-1.972453690224917677e+00
6.500000000000000222e-01,-1.995007117484095538e+00
6.520000000000000240e-01,-2.015865712843483148e+00
6.540000000000000258e-01,-2.035093982397575108e+00
6.560000000000000275e-01,-2.052758971368126240e+00
6.580000000000000293e-01,-2.068929174301513463e+00
6.600000000000000311e-01,-2.083660337016559616e+00
6.620000000000000329e-01,-2.096981342950125615e+00
6.640000000000000346e-01,-2.108906532559897240e+00
6.660000000000000364e-01,-2.119448121201535695e+00
6.680000000000000382e-01,-2.128615564637981628e+00
6.700000000000000400e-01,-2.136415056202983109e+00
6.720000000000000417e-01,-2.142849155573983921e+00
6.740000000000000435e-01,-2.147916542157009001e+00
6.760000000000000453e-01,-2.151611879546085682e+00
6.780000000000000471e-01,-2.153925771942984291e+00
6.800000000000000488e-01,-2.154844789278274497e+00
6.820000000000000506e-01,-2.154351535405700346e+00
6.840000000000000524e-01,-2.152424733337103380e+00
6.860000000000000542e-01,-2.149039303059590456e+00
6.880000000000000560e-01,-2.144166410872308415e+00
6.900000000000000577e-01,-2.137773474085697512e+00
6.920000000000000595e-01,-2.129824110910774948e+00
6.940000000000000613e-01,-2.120278031922869566e+00
6.960000000000000631e-01,-2.109090876078788312e+00
6.980000000000000648e-01,-2.096214000385957288e+00
7.000000000000000666e-01,-2.081594237521399826e+00
7.020000000000000684e-01,-2.065173639636038505e+00
7.039999999999999591e-01,-2.046889229042797353e+00
7.059999999999999609e-01,-2.026672777401862469e+00
7.079999999999999627e-01,-2.004450634446119039e+00
7.099999999999999645e-01,-1.980143625416848296e+00
7.119999999999999662e-01,-1.953667033479107751e+00
7.139999999999999680e-01,-1.924930679789948362e+00
7.159999999999999698e-01,-1.893839109951707567e+00
7.179999999999999716e-01,-1.860291891629609173e+00
7.199999999999999734e-01,-1.824196318976669451e+00
7.219999999999999751e-01,-1.785480218683682896e+00
7.239999999999999769e-01,-1.744080263245665563e+00
7.259999999999999787e-01,-1.699930387357289074e+00
7.279999999999999805e-01,-1.652962588509618636e+00
7.299999999999999822e-01,-1.603107797750462860e+00
7.319999999999999840e-01,-1.550296813322297407e+00
7.339999999999999858e-01,-1.494461291944424675e+00
7.359999999999999876e-01,-1.435534794000608461e+00
7.379999999999999893e-01,-1.373453879394854749e+00
7.399999999999999911e-01,-1.308137354996987467e+00
7.419999999999999929e-01,-1.239465577783785744e+00
7.439999999999999947e-01,-1.167303595326103727e+00
7.459999999999999964e-01,-1.091524295471317796e+00
7.479999999999999982e-01,-1.012009660844714887e+00
7.500000000000000000e-01,-9.286520180196697893e-01
7.520000000000000018e-01,-8.413552488767921389e-01
7.540000000000000036e-01,-7.500359238363836223e-01
7.560000000000000053e-01,-6.546243113299118344e-01
7.580000000000000071e-01,-5.550652159556059839e-01
7.600000000000000089e-01,-4.513533477832306073e-01
7.620000000000000107e-01,-3.435684112033705051e-01
7.640000000000000124e-01,-2.318403859236850550e-01
7.660000000000000142e-01,-1.163145175538181503e-01
7.680000000000000160e-01,2.849251203167469087e-03
7.700000000000000178e-01,1.254771722436897330e-01
7.720000000000000195e-01,2.513828703700632938e-01
7.740000000000000213e-01,3.803687509201779671e-01
7.760000000000000231e-01,5.122275626613056465e-01
