# d=[300.01138528 436.45952152 210.67425474 197.00830461 374.49581736
 291.25727103 291.97634891 407.86482683]
# TotalMass=9.38793694404652T, max_u17=70.00074650933007mm
Time (s), Displacement (mm)
0.000000000000000000e+00,-5.910926671905565442e-05
2.000000000000000042e-03,-2.928927516828204263e-04
4.000000000000000083e-03,-7.525008593443055895e-04
6.000000000000000125e-03,-1.427326201387468145e-03
8.000000000000000167e-03,-2.306766567308219523e-03
1.000000000000000021e-02,-3.380222771897477795e-03
1.200000000000000025e-02,-4.637097138120556405e-03
1.400000000000000029e-02,-6.066793145301969253e-03
1.600000000000000033e-02,-7.658716715152851309e-03
1.800000000000000211e-02,-9.402279493785036663e-03
2.000000000000000042e-02,-1.128691411477092225e-02
2.199999999999999872e-02,-1.330209162130448382e-02
2.400000000000000050e-02,-1.543732121680343843e-02
2.600000000000000228e-02,-1.768215150165576219e-02
2.800000000000000058e-02,-2.002618235515436773e-02
2.999999999999999889e-02,-2.245907686997240457e-02
3.200000000000000067e-02,-2.497057244241931637e-02
3.400000000000000244e-02,-2.755049006635687525e-02
3.600000000000000422e-02,-3.018874088356733945e-02
3.799999999999999906e-02,-3.287532911096789634e-02
4.000000000000000083e-02,-3.560616943508647381e-02
4.200000000000000261e-02,-3.838889474204922048e-02
4.399999999999999745e-02,-4.123701610562851422e-02
4.599999999999999922e-02,-4.416408192456784676e-02
4.800000000000000100e-02,-4.718365506521349229e-02
5.000000000000000278e-02,-5.030928477761985318e-02
5.200000000000000455e-02,-5.355447400171206573e-02
5.399999999999999939e-02,-5.693264291990278447e-02
5.600000000000000117e-02,-6.045708980694761842e-02
5.800000000000000294e-02,-6.414095036459223353e-02
5.999999999999999778e-02,-6.799716659531761243e-02
6.199999999999999956e-02,-7.203845667071484549e-02
6.400000000000000133e-02,-7.627726739552853630e-02
6.600000000000000311e-02,-8.072572994120588707e-02
6.800000000000000488e-02,-8.539562953369628229e-02
7.000000000000000666e-02,-9.029837996646471188e-02
7.200000000000000844e-02,-9.544500337822764413e-02
7.399999999999999634e-02,-1.008461154937833337e-01
7.599999999999999811e-02,-1.065119162952892773e-01
7.799999999999999989e-02,-1.124521858848740036e-01
8.000000000000000167e-02,-1.186762753334275194e-01
8.200000000000000344e-02,-1.251931017853464279e-01
8.400000000000000522e-02,-1.320111668016387407e-01
8.600000000000000699e-02,-1.391385776985580025e-01
8.799999999999999489e-02,-1.465830614724910608e-01
8.999999999999999667e-02,-1.543519805637313669e-01
9.199999999999999845e-02,-1.624523500007394317e-01
9.400000000000000022e-02,-1.708908555791526507e-01
9.600000000000000200e-02,-1.796738728498440685e-01
9.800000000000000377e-02,-1.888074868054684385e-01
1.000000000000000056e-01,-1.982903219652681348e-01
1.020000000000000073e-01,-2.081063790277831449e-01
1.040000000000000091e-01,-2.182322587992003848e-01
1.059999999999999970e-01,-2.286443813906666456e-01
1.079999999999999988e-01,-2.393190105919094368e-01
1.100000000000000006e-01,-2.502322795693273094e-01
1.120000000000000023e-01,-2.613602177373742785e-01
1.140000000000000041e-01,-2.726787784679957083e-01
1.160000000000000059e-01,-2.841638671111916259e-01
1.180000000000000077e-01,-2.957913686181930513e-01
1.199999999999999956e-01,-3.075371739051669384e-01
1.219999999999999973e-01,-3.193772039853727263e-01
1.239999999999999991e-01,-3.312874308427315451e-01
1.260000000000000009e-01,-3.432438940266411276e-01
1.280000000000000027e-01,-3.552227120189602183e-01
1.300000000000000044e-01,-3.672000875576946211e-01
1.320000000000000062e-01,-3.791523062922833587e-01
1.340000000000000080e-01,-3.910557283827424957e-01
1.360000000000000098e-01,-4.028867729259685282e-01
1.380000000000000115e-01,-4.146218953814683195e-01
1.400000000000000133e-01,-4.262375584588527500e-01
1.420000000000000151e-01,-4.377101972041099187e-01
1.440000000000000169e-01,-4.490161792659010942e-01
1.459999999999999909e-01,-4.601317615241508618e-01
1.479999999999999927e-01,-4.710330444113099979e-01
1.499999999999999944e-01,-4.816959253457432921e-01
1.519999999999999962e-01,-4.920960527245619165e-01
1.539999999999999980e-01,-5.022087818917136959e-01
1.559999999999999998e-01,-5.120091344117755350e-01
1.580000000000000016e-01,-5.214717618492833440e-01
1.600000000000000033e-01,-5.305797413147841368e-01
1.620000000000000051e-01,-5.393333702563389842e-01
1.640000000000000069e-01,-5.477413086623360572e-01
1.660000000000000087e-01,-5.558117357496498157e-01
1.680000000000000104e-01,-5.635523474967909507e-01
1.700000000000000122e-01,-5.709703617403688591e-01
1.720000000000000140e-01,-5.780725309149359337e-01
1.740000000000000158e-01,-5.848651625063731041e-01
1.759999999999999898e-01,-5.913541473073290478e-01
1.779999999999999916e-01,-5.975449955984302175e-01
1.799999999999999933e-01,-6.034428814170136324e-01
1.819999999999999951e-01,-6.090526951021028035e-01
1.839999999999999969e-01,-6.143791043083558501e-01
1.859999999999999987e-01,-6.194266236535687087e-01
1.880000000000000004e-01,-6.241996930973956470e-01
1.900000000000000022e-01,-6.287027650392654765e-01
1.920000000000000040e-01,-6.329403999701546102e-01
1.940000000000000058e-01,-6.369173703188278912e-01
1.960000000000000075e-01,-6.406387719051929164e-01
1.980000000000000093e-01,-6.441101421617062561e-01
2.000000000000000111e-01,-6.473375840207894472e-01
2.020000000000000129e-01,-6.503278941056592766e-01
2.040000000000000147e-01,-6.530886936178275093e-01
2.060000000000000164e-01,-6.556285601002609376e-01
2.080000000000000182e-01,-6.579571580829581823e-01
2.099999999999999922e-01,-6.600853664975325774e-01
2.119999999999999940e-01,-6.620254006864640939e-01
2.139999999999999958e-01,-6.637909268348435310e-01
2.159999999999999976e-01,-6.653971667180029748e-01
2.179999999999999993e-01,-6.668609907843271456e-01
2.200000000000000011e-01,-6.681899380506787223e-01
2.220000000000000029e-01,-6.693712299078371508e-01
2.240000000000000047e-01,-6.703828960070853382e-01
2.260000000000000064e-01,-6.712048740063613073e-01
2.280000000000000082e-01,-6.718190229008342840e-01
2.300000000000000100e-01,-6.722091182126178621e-01
2.320000000000000118e-01,-6.723608287745560519e-01
2.340000000000000135e-01,-6.722616749992637031e-01
2.360000000000000153e-01,-6.719009686597475772e-01
2.380000000000000171e-01,-6.712697343289174556e-01
2.399999999999999911e-01,-6.703606127417144345e-01
2.419999999999999929e-01,-6.691677464648428941e-01
2.439999999999999947e-01,-6.676866483925899542e-01
2.459999999999999964e-01,-6.659140537379828473e-01
2.479999999999999982e-01,-6.638477563597837694e-01
2.500000000000000000e-01,-6.614864304592275035e-01
2.520000000000000018e-01,-6.588294388956105196e-01
2.540000000000000036e-01,-6.558766296037317201e-01
2.560000000000000053e-01,-6.526281218425596942e-01
2.580000000000000071e-01,-6.490840842545751999e-01
2.600000000000000089e-01,-6.452539013548346247e-01
2.620000000000000107e-01,-6.411653288991114863e-01
2.640000000000000124e-01,-6.368548519481120884e-01
2.660000000000000142e-01,-6.323580522968379469e-01
2.680000000000000160e-01,-6.277093824200371541e-01
2.700000000000000178e-01,-6.229419468586204767e-01
2.720000000000000195e-01,-6.180872940879980071e-01
2.740000000000000213e-01,-6.131752219249735347e-01
2.760000000000000231e-01,-6.082335994770077248e-01
2.780000000000000249e-01,-6.032882085103481451e-01
2.800000000000000266e-01,-5.983574639906040771e-01
2.820000000000000284e-01,-5.934471632644523487e-01
2.840000000000000302e-01,-5.885555517730796105e-01
2.860000000000000320e-01,-5.836784128323813103e-01
2.880000000000000338e-01,-5.788090398108426404e-01
2.899999999999999800e-01,-5.739382384786247959e-01
2.919999999999999818e-01,-5.690543596463832898e-01
2.939999999999999836e-01,-5.641433616585692645e-01
2.959999999999999853e-01,-5.591889017719517962e-01
2.979999999999999871e-01,-5.541724549557640600e-01
2.999999999999999889e-01,-5.490734484167861806e-01
3.019999999999999907e-01,-5.438694193861312032e-01
3.039999999999999925e-01,-5.385362132044753114e-01
3.059999999999999942e-01,-5.330481993354089232e-01
3.079999999999999960e-01,-5.273784926205038470e-01
3.099999999999999978e-01,-5.214991866352760574e-01
3.119999999999999996e-01,-5.153815962119239202e-01
3.140000000000000013e-01,-5.089965062592672895e-01
3.160000000000000031e-01,-5.023144241156350942e-01
3.180000000000000049e-01,-4.953058328028815405e-01
3.200000000000000067e-01,-4.879475456251787802e-01
3.220000000000000084e-01,-4.802290519086693243e-01
3.240000000000000102e-01,-4.721466458083748985e-01
3.260000000000000120e-01,-4.636975517717696338e-01
3.280000000000000138e-01,-4.548801475417529883e-01
3.300000000000000155e-01,-4.456941749626730509e-01
3.320000000000000173e-01,-4.361409368934642261e-01
3.340000000000000191e-01,-4.262234786742075676e-01
3.360000000000000209e-01,-4.159467527329471226e-01
3.380000000000000226e-01,-4.053177650607858729e-01
3.400000000000000244e-01,-3.943457024275838219e-01
3.420000000000000262e-01,-3.830420393611429497e-01
3.440000000000000280e-01,-3.714206240735104525e-01
3.460000000000000298e-01,-3.594977426929408804e-01
3.480000000000000315e-01,-3.472921613520577599e-01
3.500000000000000333e-01,-3.348251458929480395e-01
3.519999999999999796e-01,-3.221204591774317616e-01
3.539999999999999813e-01,-3.092043362330100797e-01
3.559999999999999831e-01,-2.961054377180463715e-01
3.579999999999999849e-01,-2.828547824483462758e-01
3.599999999999999867e-01,-2.694856599850214418e-01
3.619999999999999885e-01,-2.560335245329251608e-01
3.639999999999999902e-01,-2.425358716321148189e-01
3.659999999999999920e-01,-2.290320993339288735e-01
3.679999999999999938e-01,-2.155633557312608417e-01
3.699999999999999956e-01,-2.021723748535065035e-01
3.719999999999999973e-01,-1.889033030359403287e-01
3.739999999999999991e-01,-1.758015179281047502e-01
3.760000000000000009e-01,-1.629134423151610001e-01
3.780000000000000027e-01,-1.502863548909301739e-01
3.800000000000000044e-01,-1.379682000442560008e-01
3.820000000000000062e-01,-1.260073986056730044e-01
3.840000000000000080e-01,-1.144526613548055155e-01
3.860000000000000098e-01,-1.033528069170174674e-01
3.880000000000000115e-01,-9.275658548765963740e-02
3.900000000000000133e-01,-8.271250962100841486e-02
3.920000000000000151e-01,-7.326869311556002962e-02
3.940000000000000169e-01,-6.447269882400434582e-02
3.960000000000000187e-01,-5.637139602028407026e-02
3.980000000000000204e-01,-4.901082777183598388e-02
4.000000000000000222e-01,-4.241180422804803618e-02
4.020000000000000240e-01,-3.654552597020842980e-02
4.040000000000000258e-01,-3.135780623782841864e-02
4.060000000000000275e-01,-2.679328419790427684e-02
4.080000000000000293e-01,-2.279534505617320655e-02
4.100000000000000311e-01,-1.930605080259890569e-02
4.120000000000000329e-01,-1.626608095493252762e-02
4.140000000000000346e-01,-1.361468236166831630e-02
4.160000000000000364e-01,-1.128962684308240649e-02
4.179999999999999827e-01,-9.227175209004618087e-03
4.199999999999999845e-01,-7.362036222004326134e-03
4.219999999999999862e-01,-5.627328585279520179e-03
4.239999999999999880e-01,-3.954563827888337227e-03
4.259999999999999898e-01,-2.273628861749351325e-03
4.279999999999999916e-01,-5.127569908913635986e-04
4.299999999999999933e-01,1.401503968171368937e-03
4.319999999999999951e-01,3.544327249240380399e-03
4.339999999999999969e-01,5.992646770021228114e-03
4.359999999999999987e-01,8.825200782393554516e-03
4.380000000000000004e-01,1.212257903199612588e-02
4.400000000000000022e-01,1.593332922221232448e-02
4.420000000000000040e-01,2.024009215340533477e-02
4.440000000000000058e-01,2.499365046913552130e-02
4.460000000000000075e-01,3.014694803477677154e-02
4.480000000000000093e-01,3.565513505212914575e-02
4.500000000000000111e-01,4.147560745031665663e-02
4.520000000000000129e-01,4.756803787202319722e-02
4.540000000000000147e-01,5.389439529570035081e-02
4.560000000000000164e-01,6.041895014696113675e-02
4.580000000000000182e-01,6.710826167772743212e-02
4.600000000000000200e-01,7.393114444956511155e-02
4.620000000000000218e-01,8.085861095854215974e-02
4.640000000000000235e-01,8.786378778062527151e-02
4.660000000000000253e-01,9.492180308551009804e-02
4.680000000000000271e-01,1.020096439423108098e-01
4.700000000000000289e-01,1.091059824987955229e-01
4.720000000000000306e-01,1.161909708306533562e-01
4.740000000000000324e-01,1.232460049998523183e-01
4.760000000000000342e-01,1.302534596007065282e-01
4.780000000000000360e-01,1.371963947782939564e-01
4.799999999999999822e-01,1.440709340087052148e-01
4.819999999999999840e-01,1.508986099000045322e-01
4.839999999999999858e-01,1.577132903052673729e-01
4.859999999999999876e-01,1.645481004567625472e-01
4.879999999999999893e-01,1.714350408399875347e-01
4.899999999999999911e-01,1.784045992377129297e-01
4.919999999999999929e-01,1.854853615298588110e-01
4.939999999999999947e-01,1.927036259230477111e-01
4.959999999999999964e-01,2.000830252979327872e-01
4.979999999999999982e-01,2.076441623077889265e-01
5.000000000000000000e-01,2.153943383609131790e-01
5.020000000000000018e-01,2.233173122371728547e-01
5.040000000000000036e-01,2.313829392503938542e-01
5.060000000000000053e-01,2.395568321109924625e-01
5.080000000000000071e-01,2.478001238123631045e-01
5.100000000000000089e-01,2.560692672088643040e-01
5.120000000000000107e-01,2.643158740579164001e-01
5.140000000000000124e-01,2.724865958369628305e-01
5.160000000000000142e-01,2.805230481727860603e-01
5.180000000000000160e-01,2.883617802470502256e-01
5.200000000000000178e-01,2.959342802821968710e-01
5.220000000000000195e-01,3.031670273650436398e-01
5.240000000000000213e-01,3.099816092266732825e-01
5.260000000000000231e-01,3.162948859899588072e-01
5.280000000000000249e-01,3.220191893182648979e-01
5.300000000000000266e-01,3.270625656243332791e-01
5.320000000000000284e-01,3.313290618327723314e-01
5.340000000000000302e-01,3.347190518382987534e-01
5.360000000000000320e-01,3.371296014582841893e-01
5.380000000000000338e-01,3.384548693402651964e-01
5.400000000000000355e-01,3.385865507484012715e-01
5.420000000000000373e-01,3.374143512268180656e-01
5.440000000000000391e-01,3.348264670336886240e-01
5.460000000000000409e-01,3.307100881391038527e-01
5.480000000000000426e-01,3.249519294888817411e-01
5.500000000000000444e-01,3.174387763867623780e-01
5.520000000000000462e-01,3.080580394389615395e-01
5.540000000000000480e-01,2.966983143381702326e-01
5.560000000000000497e-01,2.832499416507630041e-01
5.580000000000000515e-01,2.676055617182253599e-01
5.600000000000000533e-01,2.496859335638043076e-01
5.620000000000000551e-01,2.294657187909805440e-01
5.640000000000000568e-01,2.069486782052416263e-01
5.660000000000000586e-01,1.821428648307383269e-01
5.680000000000000604e-01,1.550610825414379113e-01
5.700000000000000622e-01,1.257213122033403463e-01
5.720000000000000639e-01,9.414710218674114672e-02
5.740000000000000657e-01,6.036792079160557128e-02
5.760000000000000675e-01,2.441946883171830507e-02
5.779999999999999583e-01,-1.365604869204129455e-02
5.799999999999999600e-01,-5.380970206486747343e-02
5.819999999999999618e-01,-9.598565756780265412e-02
5.839999999999999636e-01,-1.401210192850755321e-01
5.859999999999999654e-01,-1.861457107422098689e-01
5.879999999999999671e-01,-2.339824050827140345e-01
5.899999999999999689e-01,-2.835464927862936246e-01
5.919999999999999707e-01,-3.347460857274206503e-01
5.939999999999999725e-01,-3.874820564437683745e-01
5.959999999999999742e-01,-4.416481116098452397e-01
5.979999999999999760e-01,-4.971308988651468863e-01
5.999999999999999778e-01,-5.538240566687543387e-01
6.019999999999999796e-01,-6.116422849902738434e-01
6.039999999999999813e-01,-6.705076155703670882e-01
6.059999999999999831e-01,-7.303357243543889821e-01
6.079999999999999849e-01,-7.910361957392175736e-01
6.099999999999999867e-01,-8.525128163365212064e-01
6.119999999999999885e-01,-9.146638975811524075e-01
6.139999999999999902e-01,-9.773826263979548123e-01
6.159999999999999920e-01,-1.040557442972257940e+00
6.179999999999999938e-01,-1.104072444453926716e+00
6.199999999999999956e-01,-1.167807803373374087e+00
6.219999999999999973e-01,-1.231640208863769903e+00
6.239999999999999991e-01,-1.295443348274349482e+00
6.260000000000000009e-01,-1.359088407266982212e+00
6.280000000000000027e-01,-1.422444576029555874e+00
6.300000000000000044e-01,-1.485379568606649325e+00
6.320000000000000062e-01,-1.547760152360420083e+00
6.340000000000000080e-01,-1.609452684449148574e+00
6.360000000000000098e-01,-1.670323652148768101e+00
6.380000000000000115e-01,-1.730240213845479991e+00
6.400000000000000133e-01,-1.789070747388614935e+00
6.420000000000000151e-01,-1.846685393013289600e+00
6.440000000000000169e-01,-1.902956568419644334e+00
6.460000000000000187e-01,-1.957759472992940397e+00
6.480000000000000204e-01,-2.010972588552836005e+00
6.500000000000000222e-01,-2.062478164640668243e+00
6.520000000000000240e-01,-2.112162686369433384e+00
6.540000000000000258e-01,-2.159917323053150984e+00
6.560000000000000275e-01,-2.205638355995644950e+00
6.580000000000000293e-01,-2.249227583947883691e+00
6.600000000000000311e-01,-2.290579538966625694e+00
6.620000000000000329e-01,-2.329568687858383669e+00
6.640000000000000346e-01,-2.366062949684574424e+00
6.660000000000000364e-01,-2.399937175156356961e+00
6.680000000000000382e-01,-2.431073420953709263e+00
6.700000000000000400e-01,-2.459361194222416280e+00
6.720000000000000417e-01,-2.484697665799874500e+00
6.740000000000000435e-01,-2.506987850614084579e+00
6.760000000000000453e-01,-2.526144753629838924e+00
6.780000000000000471e-01,-2.542089479702481114e+00
6.800000000000000488e-01,-2.554751305760804669e+00
6.820000000000000506e-01,-2.564067713888743327e+00
6.840000000000000524e-01,-2.569984384114545772e+00
6.860000000000000542e-01,-2.572455146042477825e+00
6.880000000000000560e-01,-2.571441888865961811e+00
6.900000000000000577e-01,-2.566914429768118122e+00
6.920000000000000595e-01,-2.558850341227855374e+00
6.940000000000000613e-01,-2.547234738285726330e+00
6.960000000000000631e-01,-2.532060027360306886e+00
6.980000000000000648e-01,-2.513325618719103094e+00
7.000000000000000666e-01,-2.491037605175857816e+00
7.020000000000000684e-01,-2.465208409990060190e+00
7.039999999999999591e-01,-2.435856407270461155e+00
7.059999999999999609e-01,-2.403005518423603437e+00
7.079999999999999627e-01,-2.366684788337262813e+00
7.099999999999999645e-01,-2.326927945049058533e+00
7.119999999999999662e-01,-2.283772946629187839e+00
7.139999999999999680e-01,-2.237261518914472003e+00
7.159999999999999698e-01,-2.187438687583243890e+00
7.179999999999999716e-01,-2.134352307873649046e+00
7.199999999999999734e-01,-2.078064889061066012e+00
7.219999999999999751e-01,-2.018665412602020925e+00
7.239999999999999769e-01,-1.956256558527218248e+00
7.259999999999999787e-01,-1.890941950344287470e+00
7.279999999999999805e-01,-1.822825714602306801e+00
7.299999999999999822e-01,-1.752012053308177997e+00
7.319999999999999840e-01,-1.678604831434483247e+00
7.339999999999999858e-01,-1.602707181817373261e+00
7.359999999999999876e-01,-1.524421129817945086e+00
7.379999999999999893e-01,-1.443847240189194192e+00
7.399999999999999911e-01,-1.361062394493780303e+00
7.419999999999999929e-01,-1.276097613392881192e+00
7.439999999999999947e-01,-1.188959714543014190e+00
7.459999999999999964e-01,-1.099652984920444831e+00
7.479999999999999982e-01,-1.008178975775888553e+00
7.500000000000000000e-01,-9.145363338063307035e-01
7.520000000000000018e-01,-8.187206695710178561e-01
7.540000000000000036e-01,-7.207244634922987947e-01
7.560000000000000053e-01,-6.205370090569295449e-01
7.580000000000000071e-01,-5.181443921128148222e-01
7.600000000000000089e-01,-4.135642510166269159e-01
7.620000000000000107e-01,-3.068805406250148526e-01
7.640000000000000124e-01,-1.982088041203420858e-01
7.660000000000000142e-01,-8.766149835567024762e-02
7.680000000000000160e-01,2.465188462371024208e-02
7.700000000000000178e-01,1.386246779836803056e-01
7.720000000000000195e-01,2.541528852727815702e-01
7.740000000000000213e-01,3.711350126039765218e-01
7.760000000000000231e-01,4.894718893997088149e-01
