# d=[522.6741935  205.11179182 427.69756828 628.78883164 535.50685187
 250.17003702 438.37167934 201.54830957]
# TotalMass=14.37241676263656T, max_u17=69.9555162865256mm
Time (s), Displacement (mm)
0.000000000000000000e+00,-5.910752570222344026e-05
2.000000000000000042e-03,-2.928810251867819577e-04
4.000000000000000083e-03,-7.524596279300156286e-04
6.000000000000000125e-03,-1.427219406803980880e-03
8.000000000000000167e-03,-2.306530450387684391e-03
1.000000000000000021e-02,-3.379749703262629589e-03
1.200000000000000025e-02,-4.636223416022261859e-03
1.400000000000000029e-02,-6.065304227899592955e-03
1.600000000000000033e-02,-7.656386264744851310e-03
1.800000000000000211e-02,-9.398958726041637193e-03
2.000000000000000042e-02,-1.128268491585409684e-02
2.199999999999999872e-02,-1.329749099518307692e-02
2.400000000000000050e-02,-1.543363616681782055e-02
2.600000000000000228e-02,-1.768177294684273454e-02
2.800000000000000058e-02,-2.003299522533388832e-02
2.999999999999999889e-02,-2.247885256981149021e-02
3.200000000000000067e-02,-2.501132079513150586e-02
3.400000000000000244e-02,-2.762272183710275109e-02
3.600000000000000422e-02,-3.030559009742837817e-02
3.799999999999999906e-02,-3.305248735606452354e-02
4.000000000000000083e-02,-3.586159219646798541e-02
4.200000000000000261e-02,-3.874225238127136650e-02
4.399999999999999745e-02,-4.170887891559240529e-02
4.599999999999999922e-02,-4.477484773195471168e-02
4.800000000000000100e-02,-4.795224735214400485e-02
5.000000000000000278e-02,-5.125166854353842977e-02
5.200000000000000455e-02,-5.468205404182484297e-02
5.399999999999999939e-02,-5.825062301635157425e-02
5.600000000000000117e-02,-6.196288022340942780e-02
5.800000000000000294e-02,-6.582271408164083737e-02
5.999999999999999778e-02,-6.983259152291079741e-02
6.199999999999999956e-02,-7.399383180984830943e-02
6.400000000000000133e-02,-7.830692629867748444e-02
6.600000000000000311e-02,-8.277190597044307985e-02
6.800000000000000488e-02,-8.738874579980825119e-02
7.000000000000000666e-02,-9.215777411255887674e-02
7.200000000000000844e-02,-9.708006522048352738e-02
7.399999999999999634e-02,-1.021577954706015395e-01
7.599999999999999811e-02,-1.073945459507500561e-01
7.799999999999999989e-02,-1.127955391052652551e-01
8.000000000000000167e-02,-1.183677912273501664e-01
8.200000000000000344e-02,-1.241201869810898972e-01
8.400000000000000522e-02,-1.300634961819903401e-01
8.600000000000000699e-02,-1.362103175578683878e-01
8.799999999999999489e-02,-1.425749469193228203e-01
8.999999999999999667e-02,-1.491731887717395455e-01
9.199999999999999845e-02,-1.560221217228359158e-01
9.400000000000000022e-02,-1.631398283953598149e-01
9.600000000000000200e-02,-1.705451003084305084e-01
9.800000000000000377e-02,-1.782571275454597481e-01
1.000000000000000056e-01,-1.862879921093065494e-01
1.020000000000000073e-01,-1.946351693577589581e-01
1.040000000000000091e-01,-2.032884251492008132e-01
1.059999999999999970e-01,-2.122367234519531021e-01
1.079999999999999988e-01,-2.214679613312099671e-01
1.100000000000000006e-01,-2.309687335332577529e-01
1.120000000000000023e-01,-2.407241314523828057e-01
1.140000000000000041e-01,-2.507175802566150580e-01
1.160000000000000059e-01,-2.609307168785124920e-01
1.180000000000000077e-01,-2.713433105037464932e-01
1.199999999999999956e-01,-2.819332261133429829e-01
1.219999999999999973e-01,-2.926764305338825922e-01
1.239999999999999991e-01,-3.035470393548232448e-01
1.260000000000000009e-01,-3.145174020447560892e-01
1.280000000000000027e-01,-3.255582216748798552e-01
1.300000000000000044e-01,-3.366387048571948259e-01
1.320000000000000062e-01,-3.477267368605888032e-01
1.340000000000000080e-01,-3.587890764178049974e-01
1.360000000000000098e-01,-3.697915644964081539e-01
1.380000000000000115e-01,-3.806993412761430773e-01
1.400000000000000133e-01,-3.914770657505007856e-01
1.420000000000000151e-01,-4.020891327448857799e-01
1.440000000000000169e-01,-4.124998826981765565e-01
1.459999999999999909e-01,-4.226738002599627064e-01
1.479999999999999927e-01,-4.325756985808573707e-01
1.499999999999999944e-01,-4.421708870830832194e-01
1.519999999999999962e-01,-4.514253214512854995e-01
1.539999999999999980e-01,-4.603057355317759503e-01
1.559999999999999998e-01,-4.687797557221868860e-01
1.580000000000000016e-01,-4.768159992218725662e-01
1.600000000000000033e-01,-4.843929841124238744e-01
1.620000000000000051e-01,-4.915080201311237684e-01
1.640000000000000069e-01,-4.981684307109148224e-01
1.660000000000000087e-01,-5.043827753974192696e-01
1.680000000000000104e-01,-5.101609001599980431e-01
1.700000000000000122e-01,-5.155139839738503982e-01
1.720000000000000140e-01,-5.204545839926851825e-01
1.740000000000000158e-01,-5.249966815510436202e-01
1.759999999999999898e-01,-5.291557308879010213e-01
1.779999999999999916e-01,-5.329487117573047383e-01
1.799999999999999933e-01,-5.363941859976562032e-01
1.819999999999999951e-01,-5.395123567640324191e-01
1.839999999999999969e-01,-5.423251275767665414e-01
1.859999999999999987e-01,-5.448561567050734800e-01
1.880000000000000004e-01,-5.471309008514034788e-01
1.900000000000000022e-01,-5.491766408279677991e-01
1.920000000000000040e-01,-5.510224810898242120e-01
1.940000000000000058e-01,-5.526993147388362670e-01
1.960000000000000075e-01,-5.542397460427133105e-01
1.980000000000000093e-01,-5.556779636794948463e-01
2.000000000000000111e-01,-5.570495598025153594e-01
2.020000000000000129e-01,-5.583912925335638988e-01
2.040000000000000147e-01,-5.597407924853440297e-01
2.060000000000000164e-01,-5.611362171928295783e-01
2.080000000000000182e-01,-5.626158606619405811e-01
2.099999999999999922e-01,-5.642177283710885227e-01
2.119999999999999940e-01,-5.659790907441545338e-01
2.139999999999999958e-01,-5.679360301410595335e-01
2.159999999999999976e-01,-5.701229976209333250e-01
2.179999999999999993e-01,-5.725723960229819332e-01
2.200000000000000011e-01,-5.753031458587966052e-01
2.220000000000000029e-01,-5.783093172802391546e-01
2.240000000000000047e-01,-5.815709590753725955e-01
2.260000000000000064e-01,-5.850649966572106786e-01
2.280000000000000082e-01,-5.887651462474702280e-01
2.300000000000000100e-01,-5.926419160718078283e-01
2.320000000000000118e-01,-5.966626915919278629e-01
2.340000000000000135e-01,-6.007918975898191016e-01
2.360000000000000153e-01,-6.049912263947105906e-01
2.380000000000000171e-01,-6.092199190675059439e-01
2.399999999999999911e-01,-6.134350850887634321e-01
2.419999999999999929e-01,-6.175920460241389742e-01
2.439999999999999947e-01,-6.216446896968137459e-01
2.459999999999999964e-01,-6.255458234332063050e-01
2.479999999999999982e-01,-6.292475176844827267e-01
2.500000000000000000e-01,-6.327014343963625054e-01
2.520000000000000018e-01,-6.358591375470137308e-01
2.540000000000000036e-01,-6.386723859779650514e-01
2.560000000000000053e-01,-6.410934107238196455e-01
2.580000000000000071e-01,-6.430751802957643815e-01
2.600000000000000089e-01,-6.445810518210192130e-01
2.620000000000000107e-01,-6.455944090420021597e-01
2.640000000000000124e-01,-6.461095006956275588e-01
2.660000000000000142e-01,-6.461222830750557033e-01
2.680000000000000160e-01,-6.456306580129042016e-01
2.700000000000000178e-01,-6.446347000905894298e-01
2.720000000000000195e-01,-6.431368684972748051e-01
2.740000000000000213e-01,-6.411421985967491466e-01
2.760000000000000231e-01,-6.386584684092972974e-01
2.780000000000000249e-01,-6.356963357444974649e-01
2.800000000000000266e-01,-6.322642997565456335e-01
2.820000000000000284e-01,-6.283636316282029677e-01
2.840000000000000302e-01,-6.239935584640551314e-01
2.860000000000000320e-01,-6.191564056037686115e-01
2.880000000000000338e-01,-6.138575547335898275e-01
2.899999999999999800e-01,-6.081053647358352077e-01
2.919999999999999818e-01,-6.019110542037140466e-01
2.939999999999999836e-01,-5.952885436715977807e-01
2.959999999999999853e-01,-5.882542547484796991e-01
2.979999999999999871e-01,-5.808268627967594355e-01
2.999999999999999889e-01,-5.730269900068083455e-01
3.019999999999999907e-01,-5.648768460268460689e-01
3.039999999999999925e-01,-5.563998346203185008e-01
3.059999999999999942e-01,-5.476201079924040149e-01
3.079999999999999960e-01,-5.385620633416138281e-01
3.099999999999999978e-01,-5.292497993921281285e-01
3.119999999999999996e-01,-5.197065446501469843e-01
3.140000000000000013e-01,-5.099540727571728604e-01
3.160000000000000031e-01,-5.000121233984080593e-01
3.180000000000000049e-01,-4.898978494041775211e-01
3.200000000000000067e-01,-4.796314144194994133e-01
3.220000000000000084e-01,-4.692416543771671389e-01
3.240000000000000102e-01,-4.587596166245848650e-01
3.260000000000000120e-01,-4.482122085791485078e-01
3.280000000000000138e-01,-4.376220701507566591e-01
3.300000000000000155e-01,-4.270075689436503841e-01
3.320000000000000173e-01,-4.163829204647876425e-01
3.340000000000000191e-01,-4.057584305314645423e-01
3.360000000000000209e-01,-3.951408522764750519e-01
3.380000000000000226e-01,-3.845338458144783589e-01
3.400000000000000244e-01,-3.739385249762497421e-01
3.420000000000000262e-01,-3.633540727130300518e-01
3.440000000000000280e-01,-3.527784048877299350e-01
3.460000000000000298e-01,-3.422088611828792981e-01
3.480000000000000315e-01,-3.316429017151349412e-01
3.500000000000000333e-01,-3.210787885751943960e-01
3.519999999999999796e-01,-3.105162327939335887e-01
3.539999999999999813e-01,-2.999569890387431825e-01
3.559999999999999831e-01,-2.894053825538984159e-01
3.579999999999999849e-01,-2.788687553819899079e-01
3.599999999999999867e-01,-2.683578216576110731e-01
3.619999999999999885e-01,-2.578869246787570679e-01
3.639999999999999902e-01,-2.474741914785970887e-01
3.659999999999999920e-01,-2.371415836878119909e-01
3.679999999999999938e-01,-2.269148465349658528e-01
3.699999999999999956e-01,-2.168233608062746232e-01
3.719999999999999973e-01,-2.068999053917029429e-01
3.739999999999999991e-01,-1.971803405858156555e-01
3.760000000000000009e-01,-1.877032244862379684e-01
3.780000000000000027e-01,-1.785093765384004882e-01
3.800000000000000044e-01,-1.696414034236458368e-01
3.820000000000000062e-01,-1.611432030128462645e-01
3.840000000000000080e-01,-1.530594619747312202e-01
3.860000000000000098e-01,-1.454351618399228052e-01
3.880000000000000115e-01,-1.383151069213724438e-01
3.900000000000000133e-01,-1.317434855614787736e-01
3.920000000000000151e-01,-1.257634738309228728e-01
3.940000000000000169e-01,-1.204168881842620220e-01
3.960000000000000187e-01,-1.157438908370100050e-01
3.980000000000000204e-01,-1.117827489256339041e-01
4.000000000000000222e-01,-1.085453623426682335e-01
4.020000000000000240e-01,-1.059928611691785955e-01
4.040000000000000258e-01,-1.040598349168551373e-01
4.060000000000000275e-01,-1.026785793685908998e-01
4.080000000000000293e-01,-1.017790718357079183e-01
4.100000000000000311e-01,-1.012889710549975397e-01
4.120000000000000329e-01,-1.011336306029626264e-01
4.140000000000000346e-01,-1.012361132784814904e-01
4.160000000000000364e-01,-1.015171934537375392e-01
4.179999999999999827e-01,-1.018953353701245457e-01
4.199999999999999845e-01,-1.022866280746630163e-01
4.219999999999999862e-01,-1.026046811917927931e-01
4.239999999999999880e-01,-1.027605006149671929e-01
4.259999999999999898e-01,-1.026623300342786732e-01
4.279999999999999916e-01,-1.022154604731700667e-01
4.299999999999999933e-01,-1.013220357908770075e-01
4.319999999999999951e-01,-9.988087757910921183e-02
4.339999999999999969e-01,-9.778735666925718328e-02
4.359999999999999987e-01,-9.493334024184975350e-02
4.380000000000000004e-01,-9.120724290648062060e-02
4.400000000000000022e-01,-8.652814920469403814e-02
4.420000000000000040e-01,-8.088005560825378693e-02
4.440000000000000058e-01,-7.427835886508929453e-02
4.460000000000000075e-01,-6.673653390994133128e-02
4.480000000000000093e-01,-5.826693323600700553e-02
4.500000000000000111e-01,-4.888171928838248859e-02
4.520000000000000129e-01,-3.859390779861406051e-02
4.540000000000000147e-01,-2.741849515608198173e-02
4.560000000000000164e-01,-1.537363945037061724e-02
4.580000000000000182e-01,-2.481862389269142571e-03
4.600000000000000200e-01,1.122876220627233926e-02
4.620000000000000218e-01,2.572346820550875865e-02
4.640000000000000235e-01,4.095973998813667860e-02
4.660000000000000253e-01,5.688637236280984222e-02
4.680000000000000271e-01,7.344268058458507109e-02
4.700000000000000289e-01,9.055789181096597640e-02
4.720000000000000306e-01,1.081507469568563362e-01
4.740000000000000324e-01,1.261293386584778353e-01
4.760000000000000342e-01,1.443912066982027120e-01
4.780000000000000360e-01,1.628237065308446307e-01
4.799999999999999822e-01,1.813173546466574360e-01
4.819999999999999840e-01,1.997794443546735965e-01
4.839999999999999858e-01,2.181225311348288787e-01
4.859999999999999876e-01,2.362531782135457725e-01
4.879999999999999893e-01,2.540736245161407947e-01
4.899999999999999911e-01,2.714836261497954317e-01
4.919999999999999929e-01,2.883824206637385368e-01
4.939999999999999947e-01,3.046707566424484703e-01
4.959999999999999964e-01,3.202529268062496715e-01
4.979999999999999982e-01,3.350387409980926101e-01
5.000000000000000000e-01,3.489354533577175843e-01
5.020000000000000018e-01,3.618395166167798216e-01
5.040000000000000036e-01,3.736479577268524976e-01
5.060000000000000053e-01,3.842694689916020812e-01
5.080000000000000071e-01,3.936252598225420951e-01
5.100000000000000089e-01,4.016495797132594858e-01
5.120000000000000107e-01,4.082899024405307609e-01
5.140000000000000124e-01,4.135067727289266082e-01
5.160000000000000142e-01,4.172733273016658306e-01
5.180000000000000160e-01,4.195745121284698564e-01
5.200000000000000178e-01,4.204060167003574877e-01
5.220000000000000195e-01,4.197729732553567294e-01
5.240000000000000213e-01,4.176884847223501507e-01
5.260000000000000231e-01,4.141720105311136324e-01
5.280000000000000249e-01,4.092476522955895146e-01
5.300000000000000266e-01,4.029424024144195871e-01
5.320000000000000284e-01,3.952844086173309401e-01
5.340000000000000302e-01,3.863013056136435086e-01
5.360000000000000320e-01,3.760186614561643048e-01
5.380000000000000338e-01,3.644585810421545613e-01
5.400000000000000355e-01,3.516385122276839970e-01
5.420000000000000373e-01,3.375702723323888987e-01
5.440000000000000391e-01,3.222592938481204095e-01
5.460000000000000409e-01,3.057041174869362110e-01
5.480000000000000426e-01,2.878961407779875858e-01
5.500000000000000444e-01,2.688196010024412885e-01
5.520000000000000462e-01,2.484517720769253146e-01
5.540000000000000480e-01,2.267633473697272528e-01
5.560000000000000497e-01,2.037189746130459722e-01
5.580000000000000515e-01,1.792779053924755395e-01
5.600000000000000533e-01,1.534199933566479934e-01
5.620000000000000551e-01,1.261717084404792577e-01
5.640000000000000568e-01,9.758158594500634941e-02
5.660000000000000586e-01,6.769566859966003047e-02
5.680000000000000604e-01,3.655818929718896576e-02
5.700000000000000622e-01,4.212184411731475196e-03
5.720000000000000639e-01,-2.929996674208470292e-02
5.740000000000000657e-01,-6.393607104492975146e-02
5.760000000000000675e-01,-9.965370566509666739e-02
5.779999999999999583e-01,-1.364098373972602030e-01
5.799999999999999600e-01,-1.741604640725430142e-01
5.819999999999999618e-01,-2.128602449305588284e-01
5.839999999999999636e-01,-2.524620796114045440e-01
5.859999999999999654e-01,-2.929166398216956346e-01
5.879999999999999671e-01,-3.341718551577992913e-01
5.899999999999999689e-01,-3.761723434205220817e-01
5.919999999999999707e-01,-4.188587943518819467e-01
5.939999999999999725e-01,-4.621673240235895652e-01
5.959999999999999742e-01,-5.060288241178528823e-01
5.979999999999999760e-01,-5.503683354017872009e-01
5.999999999999999778e-01,-5.951183873459652274e-01
6.019999999999999796e-01,-6.402324141019245518e-01
6.039999999999999813e-01,-6.856704566090542352e-01
6.059999999999999831e-01,-7.313850192288698926e-01
6.079999999999999849e-01,-7.773210091425837298e-01
6.099999999999999867e-01,-8.234158492356918879e-01
6.119999999999999885e-01,-8.695997714123168132e-01
6.139999999999999902e-01,-9.157962912971533420e-01
6.159999999999999920e-01,-9.619228597359812394e-01
6.179999999999999938e-01,-1.007891681469583967e+00
6.199999999999999956e-01,-1.053610677118371974e+00
6.219999999999999973e-01,-1.098984580412239564e+00
6.239999999999999991e-01,-1.143916169119132187e+00
6.260000000000000009e-01,-1.188307586013396255e+00
6.280000000000000027e-01,-1.232061713367030187e+00
6.300000000000000044e-01,-1.275083581583545955e+00
6.320000000000000062e-01,-1.317281780538932967e+00
6.340000000000000080e-01,-1.358569840226915515e+00
6.360000000000000098e-01,-1.398867545802085610e+00
6.380000000000000115e-01,-1.438102151335778345e+00
6.400000000000000133e-01,-1.476209466621875244e+00
6.420000000000000151e-01,-1.513134773265421895e+00
6.440000000000000169e-01,-1.548833519484428267e+00
6.460000000000000187e-01,-1.583271786859474561e+00
6.480000000000000204e-01,-1.616426518674503265e+00
6.500000000000000222e-01,-1.648285487577070940e+00
6.520000000000000240e-01,-1.678846998937645107e+00
6.540000000000000258e-01,-1.708119335865410537e+00
6.560000000000000275e-01,-1.736119961613374896e+00
6.580000000000000293e-01,-1.762874504488595617e+00
6.600000000000000311e-01,-1.788402393302571447e+00
6.620000000000000329e-01,-1.812702360586590400e+00
6.640000000000000346e-01,-1.835764190046924371e+00
6.660000000000000364e-01,-1.857580403515444178e+00
6.680000000000000382e-01,-1.878144771277616254e+00
6.700000000000000400e-01,-1.897450868528166357e+00
6.720000000000000417e-01,-1.915490718075903542e+00
6.740000000000000435e-01,-1.932253552332011903e+00
6.760000000000000453e-01,-1.947724719543306282e+00
6.780000000000000471e-01,-1.961884750986932380e+00
6.800000000000000488e-01,-1.974708598072332011e+00
6.820000000000000506e-01,-1.986165041476759541e+00
6.840000000000000524e-01,-1.996216268965289586e+00
6.860000000000000542e-01,-2.004817614660357350e+00
6.880000000000000560e-01,-2.011917450226533788e+00
6.900000000000000577e-01,-2.017457217512863998e+00
6.920000000000000595e-01,-2.021371592332341205e+00
6.940000000000000613e-01,-2.023588769873407411e+00
6.960000000000000631e-01,-2.024030863297861416e+00
6.980000000000000648e-01,-2.022614407965972472e+00
7.000000000000000666e-01,-2.019250964121964032e+00
7.020000000000000684e-01,-2.013847810579253217e+00
7.039999999999999591e-01,-2.006308720905082943e+00
7.059999999999999609e-01,-1.996534811895664063e+00
7.079999999999999627e-01,-1.984425451962990694e+00
7.099999999999999645e-01,-1.969879214724877814e+00
7.119999999999999662e-01,-1.952794860945180844e+00
7.139999999999999680e-01,-1.933072330350282808e+00
7.159999999999999698e-01,-1.910613724038953354e+00
7.179999999999999716e-01,-1.885324258401664510e+00
7.199999999999999734e-01,-1.857125466406087888e+00
7.219999999999999751e-01,-1.825968326493290439e+00
7.239999999999999769e-01,-1.791821719225646703e+00
7.259999999999999787e-01,-1.754660810665867432e+00
7.279999999999999805e-01,-1.714467650339923877e+00
7.299999999999999822e-01,-1.671231678701503354e+00
7.319999999999999840e-01,-1.624950147909904441e+00
7.339999999999999858e-01,-1.575628463061162110e+00
7.359999999999999876e-01,-1.523280452981442767e+00
7.379999999999999893e-01,-1.467928579959655089e+00
7.399999999999999911e-01,-1.409582202834162024e+00
7.419999999999999929e-01,-1.348215810703448314e+00
7.439999999999999947e-01,-1.283791015290179693e+00
7.459999999999999964e-01,-1.216278474587918268e+00
7.479999999999999982e-01,-1.145657846881245279e+00
7.500000000000000000e-01,-1.071917673277074545e+00
7.520000000000000018e-01,-9.950551684989352719e-01
7.540000000000000036e-01,-9.150758961375384803e-01
7.560000000000000053e-01,-8.319933035579557545e-01
7.580000000000000071e-01,-7.458280938972738916e-01
7.600000000000000089e-01,-6.566421636806615281e-01
7.620000000000000107e-01,-5.645723222341344494e-01
7.640000000000000124e-01,-4.697943041031014122e-01
7.660000000000000142e-01,-3.724866385092746590e-01
7.680000000000000160e-01,-2.728291475212799577e-01
7.700000000000000178e-01,-1.710013401977771297e-01
7.720000000000000195e-01,-6.718076078594266420e-02
7.740000000000000213e-01,3.845863967464004107e-02
7.760000000000000231e-01,1.457480322483169777e-01
