# d=[650. 650. 650. 650. 650. 650. 650. 650.]
# TotalMass=35.785010625000005T, max_u17=10.69244834282673mm
Time (s), Displacement (mm)
0.000000000000000000e+00,-5.907455143209428596e-05
2.000000000000000042e-03,-2.926427744133490070e-04
4.000000000000000083e-03,-7.515606007238515972e-04
6.000000000000000125e-03,-1.424782454132989332e-03
8.000000000000000167e-03,-2.301166875207421615e-03
1.000000000000000021e-02,-3.369697054021525591e-03
1.200000000000000025e-02,-4.619964135892133325e-03
1.400000000000000029e-02,-6.042800039474557385e-03
1.600000000000000033e-02,-7.630805844497515374e-03
1.800000000000000211e-02,-9.378458362954221472e-03
2.000000000000000042e-02,-1.128154210097647228e-02
2.199999999999999872e-02,-1.333580594832163221e-02
2.400000000000000050e-02,-1.553497249799275573e-02
2.600000000000000228e-02,-1.786849065791919558e-02
2.800000000000000058e-02,-2.031954229764702108e-02
2.999999999999999889e-02,-2.286378355047798128e-02
3.200000000000000067e-02,-2.546915975829342968e-02
3.400000000000000244e-02,-2.809688466153737949e-02
3.600000000000000422e-02,-3.070340296783257567e-02
3.799999999999999906e-02,-3.324294093149430390e-02
4.000000000000000083e-02,-3.567596697097920322e-02
4.200000000000000261e-02,-3.797727864594225428e-02
4.399999999999999745e-02,-4.013177371597296400e-02
4.599999999999999922e-02,-4.212944974784720020e-02
4.800000000000000100e-02,-4.396553797657188484e-02
5.000000000000000278e-02,-4.564017493213268217e-02
5.200000000000000455e-02,-4.715788584616485701e-02
5.399999999999999939e-02,-4.852710225843213238e-02
5.600000000000000117e-02,-4.975982459009190700e-02
5.800000000000000294e-02,-5.087141916845346751e-02
5.999999999999999778e-02,-5.188046420260091635e-02
6.199999999999999956e-02,-5.280851669080911803e-02
6.400000000000000133e-02,-5.367969898969183334e-02
6.600000000000000311e-02,-5.452011304960659166e-02
6.800000000000000488e-02,-5.535714768887290554e-02
7.000000000000000666e-02,-5.621875786514076573e-02
7.200000000000000844e-02,-5.713279064161557591e-02
7.399999999999999634e-02,-5.812638051886270807e-02
7.599999999999999811e-02,-5.922537378289698812e-02
7.799999999999999989e-02,-6.045370002088561873e-02
8.000000000000000167e-02,-6.183260313585636769e-02
8.200000000000000344e-02,-6.337971827026527005e-02
8.400000000000000522e-02,-6.510807928447320814e-02
8.600000000000000699e-02,-6.702519247260485535e-02
8.799999999999999489e-02,-6.913237816914030720e-02
8.999999999999999667e-02,-7.142459763934182193e-02
9.199999999999999845e-02,-7.389090300350394103e-02
9.400000000000000022e-02,-7.651552875455297498e-02
9.600000000000000200e-02,-7.927950856534728141e-02
9.800000000000000377e-02,-8.216258978890879361e-02
1.000000000000000056e-01,-8.513797587818028312e-02
1.020000000000000073e-01,-8.816682729969790855e-02
1.040000000000000091e-01,-9.120670077927409136e-02
1.059999999999999970e-01,-9.421944376327773263e-02
1.079999999999999988e-01,-9.717137602365673310e-02
1.100000000000000006e-01,-1.000330436760593772e-01
1.120000000000000023e-01,-1.027786621071307555e-01
1.140000000000000041e-01,-1.053853677461915050e-01
1.160000000000000059e-01,-1.078323862276035217e-01
1.180000000000000077e-01,-1.101002095085619886e-01
1.199999999999999956e-01,-1.121698640674663461e-01
1.219999999999999973e-01,-1.140223449760683211e-01
1.239999999999999991e-01,-1.156382789447906734e-01
1.260000000000000009e-01,-1.169978553210620220e-01
1.280000000000000027e-01,-1.180810241292096774e-01
1.300000000000000044e-01,-1.188679090324063770e-01
1.320000000000000062e-01,-1.193393326446771652e-01
1.340000000000000080e-01,-1.194773180351177272e-01
1.360000000000000098e-01,-1.192654277561480819e-01
1.380000000000000115e-01,-1.186888365410854046e-01
1.400000000000000133e-01,-1.177341007121043559e-01
1.420000000000000151e-01,-1.163886702391461470e-01
1.440000000000000169e-01,-1.146402660048707334e-01
1.459999999999999909e-01,-1.124762935010338583e-01
1.479999999999999927e-01,-1.098834705796706002e-01
1.499999999999999944e-01,-1.068478084512811815e-01
1.519999999999999962e-01,-1.033550118337186047e-01
1.539999999999999980e-01,-9.939127529643869419e-02
1.559999999999999998e-01,-9.494437095795102421e-02
1.580000000000000016e-01,-9.000486687062997371e-02
1.600000000000000033e-01,-8.457611728431831122e-02
1.620000000000000051e-01,-7.868402266843367576e-02
1.640000000000000069e-01,-7.236879531169046476e-02
1.660000000000000087e-01,-6.567634510278881621e-02
1.680000000000000104e-01,-5.865811718884887671e-02
1.700000000000000122e-01,-5.137062180012300777e-02
1.720000000000000140e-01,-4.387477380494540086e-02
1.740000000000000158e-01,-3.623515923312874837e-02
1.759999999999999898e-01,-2.851931239517469310e-02
1.779999999999999916e-01,-2.079703518613526883e-02
1.799999999999999933e-01,-1.313973932316941928e-02
1.819999999999999951e-01,-5.619760330586907361e-03
1.839999999999999969e-01,1.690411489019565464e-03
1.859999999999999987e-01,8.719014810110817595e-03
1.880000000000000004e-01,1.539600887691091116e-02
1.900000000000000022e-01,2.165412706687714836e-02
1.920000000000000040e-01,2.742992058264859256e-02
1.940000000000000058e-01,3.266471462633192130e-02
1.960000000000000075e-01,3.730541294228478799e-02
1.980000000000000093e-01,4.130511177394937533e-02
2.000000000000000111e-01,4.462351013630800473e-02
2.020000000000000129e-01,4.722712049582832028e-02
2.040000000000000147e-01,4.908928852700739781e-02
2.060000000000000164e-01,5.019002525486814664e-02
2.080000000000000182e-01,5.051564714881101592e-02
2.099999999999999922e-01,5.005821838540754076e-02
2.119999999999999940e-01,4.881480060565950713e-02
2.139999999999999958e-01,4.678653958736057189e-02
2.159999999999999976e-01,4.397764967942334458e-02
2.179999999999999993e-01,4.039438559070661350e-02
2.200000000000000011e-01,3.605515975199485856e-02
2.220000000000000029e-01,3.100082831551254081e-02
2.240000000000000047e-01,2.528310608258201378e-02
2.260000000000000064e-01,1.895328597504546478e-02
2.280000000000000082e-01,1.206231331880884897e-02
2.300000000000000100e-01,4.661124093629780141e-03
2.320000000000000118e-01,-3.198780832663360163e-03
2.340000000000000135e-01,-1.146457418876966651e-02
2.360000000000000153e-01,-2.008123155858811126e-02
2.380000000000000171e-01,-2.899066203181820470e-02
2.399999999999999911e-01,-3.813097530095617416e-02
2.419999999999999929e-01,-4.743602334636520118e-02
2.439999999999999947e-01,-5.683532781288054558e-02
2.459999999999999964e-01,-6.625444768361643533e-02
2.479999999999999982e-01,-7.561576685887852478e-02
2.500000000000000000e-01,-8.483960579472703267e-02
2.520000000000000018e-01,-9.384550506102931622e-02
2.540000000000000036e-01,-1.025535067449157151e-01
2.560000000000000053e-01,-1.108852779811328737e-01
2.580000000000000071e-01,-1.187649740020497308e-01
2.600000000000000089e-01,-1.261291994323431587e-01
2.620000000000000107e-01,-1.329367003391341839e-01
2.640000000000000124e-01,-1.391590972124498449e-01
2.660000000000000142e-01,-1.447715834620168229e-01
2.680000000000000160e-01,-1.497530918884859286e-01
2.700000000000000178e-01,-1.540866205644538522e-01
2.720000000000000195e-01,-1.577597761700960666e-01
2.740000000000000213e-01,-1.607655294118250644e-01
2.760000000000000231e-01,-1.631031046371943793e-01
2.780000000000000249e-01,-1.647788606819616253e-01
2.800000000000000266e-01,-1.658018395247384813e-01
2.820000000000000284e-01,-1.661789472115246524e-01
2.840000000000000302e-01,-1.659199029812845338e-01
2.860000000000000320e-01,-1.650415878188657703e-01
2.880000000000000338e-01,-1.635666713045471621e-01
2.899999999999999800e-01,-1.615217689254594691e-01
2.919999999999999818e-01,-1.589353024387116231e-01
2.939999999999999836e-01,-1.558352846585466245e-01
2.959999999999999853e-01,-1.522472695507065543e-01
2.979999999999999871e-01,-1.481926957023042835e-01
2.999999999999999889e-01,-1.436877974600102581e-01
3.019999999999999907e-01,-1.387432076696296646e-01
3.039999999999999925e-01,-1.333642988577689870e-01
3.059999999999999942e-01,-1.275521790604792205e-01
3.079999999999999960e-01,-1.213051863212230713e-01
3.099999999999999978e-01,-1.146206861021786261e-01
3.119999999999999996e-01,-1.074969390546256093e-01
3.140000000000000013e-01,-9.993481620313371394e-02
3.160000000000000031e-01,-9.193918243224552533e-02
3.180000000000000049e-01,-8.351983847379618187e-02
3.200000000000000067e-01,-7.469809213457827279e-02
3.220000000000000084e-01,-6.551289525139206149e-02
3.240000000000000102e-01,-5.601445225424157848e-02
3.260000000000000120e-01,-4.625765940209273369e-02
3.280000000000000138e-01,-3.630161978506697695e-02
3.300000000000000155e-01,-2.620925336698978064e-02
3.320000000000000173e-01,-1.604708802758131325e-02
3.340000000000000191e-01,-5.885248009232158482e-03
3.360000000000000209e-01,4.202423989532692167e-03
3.380000000000000226e-01,1.413824722228598611e-02
3.400000000000000244e-01,2.384076746640241551e-02
3.420000000000000262e-01,3.322519135197140455e-02
3.440000000000000280e-01,4.220433305418323788e-02
3.460000000000000298e-01,5.069013261579324858e-02
3.480000000000000315e-01,5.859569867679061822e-02
3.500000000000000333e-01,6.583772207457612435e-02
3.519999999999999796e-01,7.233902406188216783e-02
3.539999999999999813e-01,7.803096153012387126e-02
3.559999999999999831e-01,8.285541961002118594e-02
3.579999999999999849e-01,8.676617608711778562e-02
3.599999999999999867e-01,8.972950926700508367e-02
3.619999999999999885e-01,9.172402266903360857e-02
3.639999999999999902e-01,9.273975705779916034e-02
3.659999999999999920e-01,9.277673744547813850e-02
3.679999999999999938e-01,9.184315070432165495e-02
3.699999999999999956e-01,8.995336595473232832e-02
3.719999999999999973e-01,8.712599813099647372e-02
3.739999999999999991e-01,8.338218165365125778e-02
3.760000000000000009e-01,7.874417365292694926e-02
3.780000000000000027e-01,7.323435193247089525e-02
3.800000000000000044e-01,6.687461808847967870e-02
3.820000000000000062e-01,5.968616641693645641e-02
3.840000000000000080e-01,5.168953961850784873e-02
3.860000000000000098e-01,4.290486765405662067e-02
3.880000000000000115e-01,3.335218019738224460e-02
3.900000000000000133e-01,2.305169758173777894e-02
3.920000000000000151e-01,1.202403817373326814e-02
3.940000000000000169e-01,2.903259400310357285e-04
3.960000000000000187e-01,-1.212776879203345849e-02
3.980000000000000204e-01,-2.520798104399816705e-02
4.000000000000000222e-01,-3.890302808525187422e-02
4.020000000000000240e-01,-5.311603883583830565e-02
4.040000000000000258e-01,-6.772432523418756012e-02
4.060000000000000275e-01,-8.260285794158643558e-02
4.080000000000000293e-01,-9.762319659253330950e-02
4.100000000000000311e-01,-1.126522143484907090e-01
4.120000000000000329e-01,-1.275506600256808287e-01
4.140000000000000346e-01,-1.421716617785517556e-01
4.160000000000000364e-01,-1.563593665093179486e-01
4.179999999999999827e-01,-1.699480017633326623e-01
4.199999999999999845e-01,-1.827616924256222908e-01
4.219999999999999862e-01,-1.946153645402636523e-01
4.239999999999999880e-01,-2.053169654821883627e-01
4.259999999999999898e-01,-2.146709965112463536e-01
4.279999999999999916e-01,-2.224831296904990485e-01
4.299999999999999933e-01,-2.285654849524161591e-01
4.319999999999999951e-01,-2.327419923748442476e-01
4.339999999999999969e-01,-2.348532371073969172e-01
4.359999999999999987e-01,-2.347602782495884222e-01
4.380000000000000004e-01,-2.323471235414082958e-01
4.400000000000000022e-01,-2.275557023223857278e-01
4.420000000000000040e-01,-2.204194851298477420e-01
4.440000000000000058e-01,-2.110281895568395516e-01
4.460000000000000075e-01,-1.994919139987198775e-01
4.480000000000000093e-01,-1.859390215505095645e-01
4.500000000000000111e-01,-1.705141785597034665e-01
4.520000000000000129e-01,-1.533768576127988725e-01
4.540000000000000147e-01,-1.347004451341258791e-01
4.560000000000000164e-01,-1.146718730463033575e-01
4.580000000000000182e-01,-9.349147210005877284e-02
4.600000000000000200e-01,-7.137258151157484243e-02
4.620000000000000218e-01,-4.854039887530270381e-02
4.640000000000000235e-01,-2.522964318462593558e-02
4.660000000000000253e-01,-1.680820757106660105e-03
4.680000000000000271e-01,2.186481938719751078e-02
4.700000000000000289e-01,4.517124860677652204e-02
4.720000000000000306e-01,6.801390758691577831e-02
4.740000000000000324e-01,9.018549037409007152e-02
4.760000000000000342e-01,1.115005430837836264e-01
4.780000000000000360e-01,1.317983249682974922e-01
4.799999999999999822e-01,1.509563304877042378e-01
4.819999999999999840e-01,1.689017640326279657e-01
4.839999999999999858e-01,1.855958598015138294e-01
4.859999999999999876e-01,2.010169405273325993e-01
4.879999999999999893e-01,2.151554943835874700e-01
4.899999999999999911e-01,2.280091879513827247e-01
4.919999999999999929e-01,2.395783926411016174e-01
4.939999999999999947e-01,2.498626657523701777e-01
4.959999999999999964e-01,2.588584368081541798e-01
4.979999999999999982e-01,2.665579386412977869e-01
5.000000000000000000e-01,2.729393092214307814e-01
5.020000000000000018e-01,2.779574983429176083e-01
5.040000000000000036e-01,2.815554384323586956e-01
5.060000000000000053e-01,2.836752314199243452e-01
5.080000000000000071e-01,2.842591205088596529e-01
5.100000000000000089e-01,2.832499778232253629e-01
5.120000000000000107e-01,2.805912505000893731e-01
5.140000000000000124e-01,2.762264776065136984e-01
5.160000000000000142e-01,2.700986486218265314e-01
5.180000000000000160e-01,2.621497862675087887e-01
5.200000000000000178e-01,2.523211618440800996e-01
5.220000000000000195e-01,2.405545113122674050e-01
5.240000000000000213e-01,2.267944779973641301e-01
5.260000000000000231e-01,2.109922484525258157e-01
5.280000000000000249e-01,1.931101128055592586e-01
5.300000000000000266e-01,1.731264824252966850e-01
5.320000000000000284e-01,1.510407447822117444e-01
5.340000000000000302e-01,1.268772996053750823e-01
5.360000000000000320e-01,1.006882012666620446e-01
5.380000000000000338e-01,7.255401388370584514e-02
5.400000000000000355e-01,4.258274113153411727e-02
5.420000000000000373e-01,1.090693512388252531e-02
5.440000000000000391e-01,-2.232069040307494909e-02
5.460000000000000409e-01,-5.693261585784403084e-02
5.480000000000000426e-01,-9.275224964892395119e-02
5.500000000000000444e-01,-1.295994848564771540e-01
5.520000000000000462e-01,-1.672956053918440433e-01
5.540000000000000480e-01,-2.056672114439045962e-01
5.560000000000000497e-01,-2.445490003630151898e-01
5.580000000000000515e-01,-2.837854023104966483e-01
5.600000000000000533e-01,-3.232059498559025079e-01
5.620000000000000551e-01,-3.625999319194876946e-01
5.640000000000000568e-01,-4.017411541884753357e-01
5.660000000000000586e-01,-4.404124919116416681e-01
5.680000000000000604e-01,-4.784051913564421610e-01
5.700000000000000622e-01,-5.155182980263061099e-01
5.720000000000000639e-01,-5.515581479076854254e-01
5.740000000000000657e-01,-5.863377872446746686e-01
5.760000000000000675e-01,-6.196761941141852859e-01
5.779999999999999583e-01,-6.513972519958681762e-01
5.799999999999999600e-01,-6.813285476550238196e-01
5.819999999999999618e-01,-7.093001487690429041e-01
5.839999999999999636e-01,-7.351435620631546763e-01
5.859999999999999654e-01,-7.586911028430578519e-01
5.879999999999999671e-01,-7.797758321993352171e-01
5.899999999999999689e-01,-7.982321050550026387e-01
5.919999999999999707e-01,-8.138966932688603828e-01
5.939999999999999725e-01,-8.266103911754353328e-01
5.959999999999999742e-01,-8.362199973559477639e-01
5.979999999999999760e-01,-8.425805881057594204e-01
5.999999999999999778e-01,-8.455719344211174437e-01
6.019999999999999796e-01,-8.451151002731867035e-01
6.039999999999999813e-01,-8.411613665627879488e-01
6.059999999999999831e-01,-8.336812426593335212e-01
6.079999999999999849e-01,-8.226673264051608259e-01
6.099999999999999867e-01,-8.081369144297682050e-01
6.119999999999999885e-01,-7.901341802926288294e-01
6.139999999999999902e-01,-7.687317386243898154e-01
6.159999999999999920e-01,-7.440314330040803670e-01
6.179999999999999938e-01,-7.161642236404511808e-01
6.199999999999999956e-01,-6.852890960075657123e-01
6.219999999999999973e-01,-6.515909989843553518e-01
6.239999999999999991e-01,-6.152779056929570389e-01
6.260000000000000009e-01,-5.765771243628919906e-01
6.280000000000000027e-01,-5.357310581888656831e-01
6.300000000000000044e-01,-4.929926742146233387e-01
6.320000000000000062e-01,-4.486209468596816796e-01
6.340000000000000080e-01,-4.028765292602789483e-01
6.360000000000000098e-01,-3.560178677566058769e-01
6.380000000000000115e-01,-3.082979181547326752e-01
6.400000000000000133e-01,-2.599615662018178730e-01
6.420000000000000151e-01,-2.112437703441776005e-01
6.440000000000000169e-01,-1.623683803808520232e-01
6.460000000000000187e-01,-1.135475857614446221e-01
6.480000000000000204e-01,-6.498191570473309253e-02
6.500000000000000222e-01,-1.686068748897473837e-02
6.520000000000000240e-01,3.063718607177240427e-02
6.540000000000000258e-01,7.734210875301718302e-02
6.560000000000000275e-01,1.230925013341200164e-01
6.580000000000000293e-01,1.677333528424497788e-01
6.600000000000000311e-01,2.111278428545707853e-01
6.620000000000000329e-01,2.531689158525156635e-01
6.640000000000000346e-01,2.937645598490077337e-01
6.660000000000000364e-01,3.328232376656573566e-01
6.680000000000000382e-01,3.702527402790409816e-01
6.700000000000000400e-01,4.059594260519283626e-01
6.720000000000000417e-01,4.398480041531260820e-01
6.740000000000000435e-01,4.718219867651918809e-01
6.760000000000000453e-01,5.017848584434386749e-01
6.780000000000000471e-01,5.296419076593412711e-01
6.800000000000000488e-01,5.553025618364161309e-01
6.820000000000000506e-01,5.786829923593700409e-01
6.840000000000000524e-01,5.997087311016052746e-01
6.860000000000000542e-01,6.183170698580296998e-01
6.880000000000000560e-01,6.344590864119860063e-01
6.900000000000000577e-01,6.481012316072390922e-01
6.920000000000000595e-01,6.592264932341426187e-01
6.940000000000000613e-01,6.678352028527652084e-01
6.960000000000000631e-01,6.739455611616046449e-01
6.980000000000000648e-01,6.775939310786333047e-01
7.000000000000000666e-01,6.788349020039825543e-01
7.020000000000000684e-01,6.777410852065113289e-01
7.039999999999999591e-01,6.744025769063145548e-01
7.059999999999999609e-01,6.689260309876812194e-01
7.079999999999999627e-01,6.614333147372229993e-01
7.099999999999999645e-01,6.520597670518343270e-01
7.119999999999999662e-01,6.409521239492202982e-01
7.139999999999999680e-01,6.282662079231341457e-01
7.159999999999999698e-01,6.141644895786582126e-01
7.179999999999999716e-01,5.988136243130806058e-01
7.199999999999999734e-01,5.823697653119652706e-01
7.219999999999999751e-01,5.649640404432429985e-01
7.239999999999999769e-01,5.467128433256384090e-01
7.259999999999999787e-01,5.277283960779901584e-01
7.279999999999999805e-01,5.081173634410032225e-01
7.299999999999999822e-01,4.879798670826350770e-01
7.319999999999999840e-01,4.674089112376894062e-01
7.339999999999999858e-01,4.464902162332256563e-01
7.359999999999999876e-01,4.253024537893955181e-01
7.379999999999999893e-01,4.039178825416727681e-01
7.399999999999999911e-01,3.824252657895320651e-01
7.419999999999999929e-01,3.609531337738750567e-01
7.439999999999999947e-01,3.396495758216250827e-01
7.459999999999999964e-01,3.186623147824176883e-01
7.479999999999999982e-01,2.981408320941172918e-01
7.500000000000000000e-01,2.782385140131365953e-01
7.520000000000000018e-01,2.591147121024999778e-01
7.540000000000000036e-01,2.409365826475408923e-01
7.560000000000000053e-01,2.238805210416153491e-01
7.580000000000000071e-01,2.081329570561625819e-01
7.600000000000000089e-01,1.938555272240150285e-01
7.620000000000000107e-01,1.811491968177093848e-01
7.640000000000000124e-01,1.700866731674847698e-01
7.660000000000000142e-01,1.607435618433365188e-01
7.680000000000000160e-01,1.531937039777667153e-01
7.700000000000000178e-01,1.475037359336894838e-01
7.720000000000000195e-01,1.437271942194837393e-01
7.740000000000000213e-01,1.418985728391659873e-01
7.760000000000000231e-01,1.420278189326785734e-01
7.780000000000000249e-01,1.440958020366995551e-01
7.800000000000000266e-01,1.480512912007192206e-01
7.820000000000000284e-01,1.538098566709979187e-01
